Name,Alessandro
Date of Birth,"25 Sep 2006"
Recorded Date,2024-08-26 22:43:51 +0200
Classification,Sinus Rhythm
Symptoms,
Software Version,1.90
Device,"Watch7,2"
Sample Rate,512 hertz


Lead,Lead I
Unit,µV

129,368
122,864
116,456
110,231
104,263
98,615
93,303
88,314
83,604
79,085
74,696
70,388
66,095
61,783
57,426
53,008
48,566
44,104
39,546
34,909
30,287
25,747
21,386
17,241
13,211
9,312
5,741
2,384
-1,257
-5,28
-9,523
-14,051
-18,302
-23,321
-32,365
-44,731
-57,407
-65,471
-59,651
-40,496
-17,368
0,42
-0,346
-20,607
-47,922
-72,666
-84,447
-81,38
-72,758
-64,31
-59,936
-60,863
-63,309
-65,525
-67,62
-69,435
-71,493
-73,907
-76,113
-77,861
-79,17
-80,003
-80,347
-80,306
-80,007
-79,551
-79,064
-78,596
-78,124
-77,69
-77,353
-77,125
-77,039
-77,109
-77,367
-77,932
-78,919
-80,378
-82,298
-84,555
-86,955
-89,37
-91,696
-93,85
-95,755
-97,241
-98,257
-98,982
-99,776
-101,164
-103,607
-107,244
-112,048
-118,085
-125,145
-132,639
-139,619
-144,493
-145,638
-142,081
-133,47
-119,8
-101,757
-80,83
-59,143
-39,799
-26,078
-20,77
-25,999
-43,061
-72,183
-110,421
-151,898
-190,815
-222,858
-249,058
-274,283
-297,712
-309,625
-291,737
-224,621
-101,344
67,582
258,213
445,847
614,339
757,838
878,511
976,21
1046,143
1082,551
1079,143
1033,675
949,222
831,814
689,522
531,605
367,764
206,891
57,356
-72,786
-179,151
-261,807
-319,901
-353,256
-360,875
-337,497
-288,512
-228,231
-170,527
-132,328
-116,635
-111,955
-111,039
-106,295
-94,894
-84,474
-75,214
-64,774
-58,071
-54,356
-56,369
-69,441
-85,794
-100,17
-109,164
-106,969
-98,123
-87,157
-75,509
-66,881
-60,885
-56,182
-53,347
-51,949
-51,707
-52,692
-54,218
-55,468
-56,075
-55,817
-54,576
-52,461
-49,611
-46,099
-42,074
-37,711
-33,068
-28,194
-23,139
-17,922
-12,606
-7,286
-2,048
3,037
7,919
12,571
16,977
21,13
25,035
28,713
32,189
35,477
38,583
41,51
44,26
46,844
49,278
51,577
53,758
55,839
57,83
59,741
61,576
63,339
65,027
66,637
68,166
69,61
70,972
72,25
73,447
74,561
75,591
76,536
77,392
78,157
78,824
79,387
79,842
80,181
80,4
80,491
80,45
80,27
79,947
79,474
78,848
78,065
77,122
76,015
74,746
73,312
71,715
69,956
68,038
65,964
63,738
61,366
58,853
56,206
53,433
50,541
47,54
44,44
41,25
37,982
34,646
31,254
27,819
24,353
20,87
17,383
13,904
10,446
7,023
3,646
0,327
-2,922
-6,092
-9,175
-12,161
-15,043
-17,816
-20,475
-23,015
-25,434
-27,73
-29,902
-31,949
-33,873
-35,674
-37,354
-38,916
-40,362
-41,697
-42,923
-44,045
-45,066
-45,992
-46,827
-47,577
-48,246
-48,842
-49,37
-49,837
-50,248
-50,609
-50,926
-51,205
-51,449
-51,663
-51,85
-52,011
-52,148
-52,262
-52,353
-52,42
-52,461
-52,474
-52,456
-52,404
-52,314
-52,181
-52,001
-51,768
-51,48
-51,133
-50,723
-50,247
-49,702
-49,087
-48,4
-47,641
-46,807
-45,898
-44,913
-43,851
-42,714
-41,5
-40,214
-38,858
-37,438
-35,964
-34,445
-32,894
-31,323
-29,747
-28,181
-26,641
-25,143
-23,697
-22,32
-21,026
-19,831
-18,757
-17,817
-17,028
-16,402
-15,952
-15,687
-15,617
-15,746
-16,069
-16,586
-17,302
-18,23
-19,396
-20,819
-22,51
-24,473
-26,715
-29,236
-32,032
-35,082
-38,34
-41,757
-45,285
-48,882
-52,519
-56,151
-59,706
-63,096
-66,221
-68,99
-71,345
-73,245
-74,638
-75,504
-75,848
-75,696
-75,161
-74,386
-73,499
-72,665
-72,064
-71,828
-72,175
-73,427
-75,779
-79,333
-84,016
-89,396
-94,992
-100,474
-105,389
-109,121
-111,272
-111,598
-110,374
-108,869
-108,546
-110,472
-115,431
-124,298
-137,712
-155,587
-177,072
-198,046
-211,726
-214,438
-204,382
-182,197
-152,896
-112,852
-51,792
38,457
166,172
323,964
491,156
649,129
784,027
897,092
994,42
1077,146
1135,772
1143,645
1082,673
944,064
730,663
475,357
210,546
-30,788
-212,473
-329,862
-389,246
-403,573
-397,094
-374,469
-334,431
-281,3
-220,859
-169,788
-142,864
-140,728
-153,305
-167,03
-173,695
-174,844
-178,482
-189,895
-208,352
-229,306
-246,892
-257,8
-261,744
-259,382
-251,828
-240,241
-226,007
-210,953
-196,435
-183,31
-171,996
-162,531
-154,947
-149,158
-144,793
-141,287
-138,256
-135,54
-133,111
-131,059
-129,394
-128,083
-127,173
-126,736
-126,805
-127,359
-128,328
-129,579
-130,999
-132,477
-133,852
-134,995
-135,778
-136,052
-135,728
-134,743
-133,045
-130,61
-127,421
-123,462
-118,744
-113,301
-107,161
-100,387
-93,047
-85,235
-77,085
-68,71
-60,207
-51,681
-43,202
-34,832
-26,627
-18,623
-10,835
-3,284
4,019
11,071
17,861
24,389
30,666
36,708
42,547
48,203
53,684
58,992
64,124
69,07
73,818
78,351
82,637
86,652
90,375
93,786
96,873
99,62
102,011
104,031
105,666
106,906
107,747
108,188
108,23
107,877
107,136
106,019
104,541
102,717
100,562
98,092
95,324
92,275
88,967
85,419
81,655
77,695
73,565
69,288
64,892
60,4
55,84
51,237
46,614
41,998
37,412
32,88
28,426
24,069
19,829
15,722
11,764
7,97
4,355
0,933
-2,287
-5,296
-8,086
-10,653
-12,991
-15,098
-16,979
-18,638
-20,084
-21,322
-22,356
-23,192
-23,834
-24,296
-24,598
-24,756
-24,786
-24,704
-24,529
-24,282
-23,984
-23,646
-23,291
-22,94
-22,602
-22,297
-22,039
-21,83
-21,709
-21,693
-21,697
-21,642
-21,475
-21,173
-20,802
-20,437
-20,08
-19,688
-19,462
-19,745
-20,504
-21,62
-22,957
-23,842
-25,265
-28,441
-31,9
-35,16
-34,216
-25,293
-12,437
1,872
9,758
3,745
-12,727
-38,361
-64,585
-81,802
-88,843
-82,516
-68,324
-53,739
-41,929
-37,375
-36,84
-36,493
-35,733
-33,005
-30,654
-30,479
-31,323
-32,876
-34,518
-35,565
-36,4
-37,055
-36,963
-36,085
-34,762
-33,221
-31,739
-30,43
-29,12
-27,762
-26,483
-25,321
-24,265
-23,302
-22,37
-21,463
-20,658
-20,011
-19,577
-19,392
-19,462
-19,795
-20,406
-21,293
-22,456
-23,875
-25,506
-27,303
-29,219
-31,21
-33,255
-35,321
-37,363
-39,323
-41,114
-42,661
-43,916
-44,843
-45,422
-45,675
-45,633
-45,378
-45,042
-44,738
-44,595
-44,754
-45,333
-46,483
-48,359
-51,081
-54,849
-59,929
-66,421
-74,271
-83,204
-92,616
-101,926
-110,653
-118,129
-123,608
-126,639
-127,135
-125,717
-123,745
-122,483
-122,799
-125,43
-130,971
-139,515
-150,435
-161,752
-170,14
-171,988
-163,994
-143,225
-106,887
-52,815
20,092
111,091
217,233
334,201
456,822
579,184
694,259
794,671
873,313
924,204
943,485
928,962
880,214
799,128
690,373
560,73
418,487
272,53
131,169
2,392
-106,836
-191,729
-250,388
-283,642
-294,476
-287,216
-266,764
-238,735
-208,838
-181,888
-160,837
-146,688
-139,088
-136,849
-138,414
-141,874
-145,05
-145,947
-143,597
-138,04
-129,886
-120,112
-109,63
-99,229
-89,775
-82,063
-76,457
-72,958
-71,341
-71,195
-72,175
-74,009
-76,384
-79,01
-81,629
-84,008
-85,96
-87,34
-88,03
-87,953
-87,066
-85,349
-82,821
-79,529
-75,542
-70,953
-65,85
-60,311
-54,414
-48,231
-41,846
-35,351
-28,835
-22,382
-16,05
-9,877
-3,89
1,895
7,474
12,855
18,052
23,092
27,991
32,755
37,39
41,901
46,293
50,574
54,751
58,825
62,799
66,671
70,44
74,1
77,643
81,06
84,338
87,467
90,436
93,232
95,843
98,26
100,47
102,465
104,236
105,77
107,057
108,083
108,841
109,322
109,518
109,411
108,988
108,229
107,129
105,7
103,946
101,866
99,467
96,754
93,738
90,445
86,882
83,035
78,898
74,456
69,716
64,705
59,447
53,967
48,276
42,359
36,22
29,881
23,347
16,619
9,687
2,522
-4,85
-12,349
-19,904
-27,443
-34,918
-42,318
-49,616
-56,777
-63,763
-70,52
-77,017
-83,242
-89,154
-94,688
-99,777
-104,332
-108,336
-111,847
-114,903
-117,538
-119,776
-121,615
-123,08
-124,208
-125,014
-125,5
-125,655
-125,471
-124,986
-124,266
-123,38
-122,408
-121,381
-120,303
-119,215
-118,143
-117,103
-116,085
-115,034
-113,917
-112,768
-111,676
-110,74
-110,026
-109,507
-109,107
-108,8
-108,588
-108,473
-108,386
-108,089
-107,351
-106,249
-105,216
-104,74
-105,051
-106,005
-107,218
-108,582
-110,408
-112,59
-113,863
-112,788
-108,583
-100,927
-92,218
-84,968
-78,045
-71,77
-64,232
-51,967
-39,105
-29,888
-31,072
-53,24
-97,289
-155,419
-212,912
-250,995
-259,15
-241,631
-211,142
-181,337
-159,982
-144,111
-130,343
-117,519
-108,511
-109,955
-119,511
-132,786
-144,644
-148,653
-147,882
-145,698
-142,972
-141,995
-141,133
-138,951
-136,54
-134,007
-131,519
-129,387
-127,182
-124,688
-122,096
-119,402
-116,476
-113,278
-109,822
-106,185
-102,532
-98,976
-95,521
-92,16
-88,902
-85,767
-82,793
-80,019
-77,467
-75,149
-73,075
-71,252
-69,682
-68,369
-67,316
-66,529
-66,012
-65,766
-65,795
-66,101
-66,679
-67,519
-68,596
-69,864
-71,277
-72,792
-74,368
-75,982
-77,606
-79,198
-80,708
-82,055
-83,157
-83,957
-84,396
-84,436
-84,08
-83,339
-82,267
-80,97
-79,523
-78,019
-76,579
-75,293
-74,296
-73,751
-73,775
-74,59
-76,501
-79,662
-84,099
-89,59
-95,541
-101,382
-106,657
-110,746
-113,02
-113,107
-110,913
-107,229
-103,657
-101,61
-102,187
-106,083
-113,556
-124,633
-138,66
-153,328
-165,004
-169,918
-164,453
-146,023
-112,659
-62,204
6,388
92,238
192,776
304,08
421,532
540,905
657,168
763,784
854,74
924,182
966,847
979,664
960,036
907,536
826,363
720,246
592,399
445,828
280,77
106,498
-59,324
-198,75
-294,595
-345,361
-361,37
-354,367
-335,227
-305,97
-269,279
-229,901
-194,911
-174,111
-165,982
-166,301
-169,864
-168,81
-164,915
-160,156
-153,937
-148,132
-141,067
-131,352
-120,37
-108,779
-97,622
-88,287
-81,363
-77,117
-75,682
-76,836
-80,11
-85,066
-91,336
-98,479
-106,016
-113,575
-120,787
-127,355
-133,156
-138,084
-142,014
-144,872
-146,575
-147,034
-146,254
-144,277
-141,143
-136,955
-131,829
-125,908
-119,403
-112,516
-105,411
-98,235
-91,079
-83,997
-77,05
-70,28
-63,712
-57,388
-51,325
-45,524
-40
-34,752
-29,761
-25,001
-20,418
-15,955
-11,579
-7,263
-2,995
1,224
5,396
9,514
13,56
17,522
21,392
25,159
28,821
32,375
35,809
39,115
42,275
45,274
48,098
50,737
53,177
55,412
57,431
59,228
60,802
62,151
63,268
64,147
64,784
65,172
65,306
65,182
64,793
64,134
63,205
62,01
60,548
58,824
56,837
54,583
52,076
49,329
46,331
43,076
39,562
35,78
31,758
27,54
23,114
18,469
13,682
8,816
3,926
-0,914
-5,731
-10,599
-15,445
-20,157
-24,96
-30,126
-35,461
-40,962
-46,664
-51,919
-58,407
-67,759
-77,601
-87,201
-92,21
-87,429
-78,583
-69,483
-65,814
-75,388
-91,273
-107,594
-120,321
-122,804
-119,787
-116,081
-112,754
-112,737
-114,327
-115,336
-116,182
-116,591
-116,714
-117
-117,168
-116,991
-116,556
-115,89
-114,973
-113,823
-112,467
-110,924
-109,249
-107,501
-105,673
-103,757
-101,773
-99,731
-97,647
-95,535
-93,404
-91,26
-89,119
-86,995
-84,9
-82,846
-80,844
-78,903
-77,033
-75,241
-73,536
-71,924
-70,409
-68,996
-67,687
-66,485
-65,39
-64,401
-63,52
-62,743
-62,071
-61,501
-61,03
-60,656
-60,377
-60,188
-60,088
-60,071
-60,133
-60,271
-60,478
-60,751
-61,083
-61,468
-61,901
-62,374
-62,881
-63,415
-63,968
-64,533
-65,104
-65,673
-66,236
-66,785
-67,317
-67,828
-68,314
-68,773
-69,203
-69,602
-69,971
-70,308
-70,612
-70,883
-71,121
-71,326
-71,498
-71,636
-71,743
-71,818
-71,863
-71,879
-71,868
-71,83
-71,769
-71,685
-71,582
-71,463
-71,329
-71,185
-71,035
-70,882
-70,73
-70,582
-70,441
-70,309
-70,186
-70,073
-69,969
-69,871
-69,776
-69,68
-69,58
-69,472
-69,352
-69,218
-69,068
-68,899
-68,709
-68,495
-68,253
-67,974
-67,65
-67,272
-66,83
-66,313
-65,714
-65,024
-64,236
-63,347
-62,356
-61,259
-60,05
-58,72
-57,256
-55,65
-53,905
-52,026
-50,027
-47,934
-45,778
-43,596
-41,428
-39,301
-37,233
-35,226
-33,268
-31,347
-29,447
-27,571
-25,734
-23,948
-22,219
-20,545
-18,915
-17,293
-15,625
-13,85
-11,898
-9,734
-7,354
-4,786
-2,092
0,647
3,34
5,929
8,389
10,718
12,919
14,987
16,916
18,662
20,169
21,367
22,171
22,545
22,5
22,09
21,395
20,525
19,592
18,65
17,717
16,758
15,681
14,424
12,985
11,36
9,522
7,439
5,014
2,119
-1,333
-5,509
-10,786
-17,439
-25,055
-32,999
-40,612
-46,718
-52,145
-57,61
-60,589
-60,565
-54,579
-39,822
-23,338
-9,913
-5,744
-18,715
-42,594
-70,965
-97,444
-111,635
-113,046
-101,867
-75,381
-32,814
29,6
114,476
219,806
341,637
474,354
611,536
746,571
871,827
979,705
1063,013
1115,889
1134,612
1116,101
1060,747
973,656
860,705
728,608
579,414
408,733
219,151
21,26
-164,168
-307,617
-391,774
-413,712
-384,035
-324,285
-253,792
-187,996
-135,369
-99,137
-76,726
-59,214
-41,247
-19,082
6,323
27,356
40,435
44,454
39,672
29,613
16,628
2,054
-12,257
-24,839
-34,953
-42,32
-46,775
-48,316
-47,184
-43,831
-39,293
-35,057
-31,889
-29,903
-29,053
-29,011
-29,527
-30,501
-31,534
-32,032
-31,678
-30,368
-28,154
-25,272
-21,857
-17,938
-13,603
-8,961
-4,105
0,869
5,905
10,987
16,092
21,197
26,276
31,299
36,256
41,149
45,993
50,813
55,622
60,418
65,198
69,956
74,692
79,414
84,126
88,828
93,522
98,206
102,882
107,553
112,215
116,86
121,476
126,048
130,564
135,014
139,388
143,674
147,862
151,937
155,886
159,697
163,355
166,845
170,149
173,251
176,135
178,786
181,191
183,335
185,206
186,792
188,081
189,064
189,732
190,078
190,094
189,775
189,119
188,124
186,788
185,114
183,103
180,762
178,096
175,114
171,826
168,244
164,382
160,256
155,882
151,28
146,468
141,467
136,298
130,984
125,547
120,011
114,398
108,733
103,038
97,337
91,654
86,01
80,428
74,928
69,532
64,258
59,124
54,148
49,346
44,731
40,317
36,116
32,137
28,39
24,881
21,615
18,595
15,824
13,301
11,024
8,99
7,196
5,635
4,301
3,186
2,283
1,581
1,072
0,746
0,591
0,596
0,751
1,042
1,457
1,986
2,614
3,33
4,122
4,977
5,885
6,832
7,809
8,804
9,807
10,808
11,798
12,769
13,713
14,623
15,493
16,319
17,095
17,82
18,49
19,103
19,657
20,152
20,587
20,961
21,275
21,528
21,722
21,857
21,934
21,956
21,923
21,838
21,703
21,519
21,29
21,018
20,705
20,356
19,971
19,555
19,112
18,643
18,152
17,642
17,116
16,577
16,027
15,467
14,901
14,329
13,752
13,172
12,589
12,004
11,419
10,833
10,247
9,663
9,08
8,5
7,923
7,35
6,781
6,217
5,659
5,107
4,562
4,024
3,495
2,975
2,463
1,962
1,469
0,986
0,511
0,045
-0,413
-0,864
-1,309
-1,747
-2,18
-2,609
-3,032
-3,453
-3,87
-4,284
-4,697
-5,11
-5,522
-5,935
-6,35
-6,767
-7,188
-7,613
-8,045
-8,483
-8,929
-9,385
-9,853
-10,334
-10,83
-11,343
-11,875
-12,426
-12,999
-13,595
-14,214
-14,858
-15,526
-16,219
-16,938
-17,681
-18,449
-19,241
-20,056
-20,891
-21,747
-22,62
-23,51
-24,413
-25,328
-26,253
-27,185
-28,123
-29,063
-30,005
-30,944
-31,879
-32,807
-33,724
-34,628
-35,515
-36,382
-37,226
-38,043
-38,832
-39,587
-40,307
-40,989
-41,63
-42,227
-42,779
-43,285
-43,742
-44,152
-44,513
-44,827
-45,095
-45,318
-45,5
-45,643
-45,75
-45,824
-45,867
-45,884
-45,879
-45,855
-45,816
-45,768
-45,714
-45,66
-45,613
-45,575
-45,548
-45,536
-45,537
-45,56
-45,622
-45,723
-45,863
-46,064
-46,337
-46,696
-47,182
-47,776
-48,423
-49,126
-49,886
-50,643
-51,402
-52,141
-52,759
-53,327
-54,038
-54,923
-55,985
-57,464
-59,493
-61,859
-64,715
-67,981
-70,551
-73,844
-79,541
-85,4
-91,276
-92,276
-80,365
-61,276
-41,608
-31,296
-46,738
-81,655
-121,229
-152,606
-156,643
-135,97
-107,506
-81,95
-72,211
-79,219
-91,657
-103,965
-112,096
-114,713
-115,977
-117,493
-118,868
-120,324
-121,316
-121,624
-121,763
-121,916
-121,991
-122,035
-122,111
-122,177
-122,187
-122,099
-121,82
-121,316
-120,63
-119,769
-118,723
-117,496
-116,089
-114,505
-112,76
-110,862
-108,809
-106,605
-104,255
-101,769
-99,158
-96,438
-93,621
-90,723
-87,762
-84,755
-81,72
-78,674
-75,633
-72,613
-69,627
-66,695
-63,833
-61,064
-58,405
-55,874
-53,486
-51,257
-49,201
-47,332
-45,654
-44,171
-42,885
-41,808
-40,961
-40,369
-40,057
-40,036
-40,312
-40,891
-41,774
-42,955
-44,414
-46,108
-47,989
-50,012
-52,141
-54,341
-56,569
-58,754
-60,798
-62,604
-64,083
-65,173
-65,843
-66,049
-65,762
-64,976
-63,704
-62,032
-60,105
-58,059
-56,051
-54,253
-52,805
-51,961
-52,106
-53,46
-56,097
-59,828
-64,105
-68,479
-72,695
-76,344
-78,916
-80,11
-79,858
-78,952
-79,067
-81,545
-87,275
-96,743
-109,941
-126,635
-146,041
-165,7
-181,777
-190,447
-188,087
-172,128
-140,905
-92,556
-26,119
57,362
155,309
263,954
378,668
495,331
609,638
715,843
808,118
881,085
929,792
950,407
942,046
906,517
846,142
764,797
661,26
528,355
366,222
182,835
-0,211
-148,248
-239,721
-270,943
-256,234
-226,052
-200,959
-187,547
-183,315
-177,793
-167,052
-153,588
-140,719
-132,731
-130,319
-131,322
-133,737
-135,346
-134,374
-130,328
-123,335
-113,928
-103,144
-91,924
-80,975
-71,051
-62,864
-56,762
-52,806
-50,852
-50,512
-51,432
-53,335
-55,902
-58,84
-61,883
-64,775
-67,305
-69,303
-70,638
-71,226
-71,022
-70,001
-68,176
-65,588
-62,3
-58,404
-53,987
-49,13
-43,911
-38,402
-32,689
-26,869
-21,034
-15,274
-9,652
-4,205
1,041
6,07
10,882
15,488
19,908
24,176
28,314
32,338
36,26
40,092
43,845
47,534
51,169
54,76
58,315
61,839
65,335
68,806
72,252
75,669
79,055
82,407
85,718
88,981
92,189
95,329
98,395
101,378
104,266
107,048
109,708
112,233
114,62
116,863
118,952
120,872
122,595
124,102
125,381
126,401
127,121
127,515
127,565
127,304
126,792
126,042
125,106
124,103
123,162
122,386
121,807
121,327
120,793
120,215
119,484
118,155
115,85
112,471
108,162
103,368
97,436
88,081
73,914
56,28
41,798
39,514
54,426
83,126
109,747
117,551
96,87
49,431
-4,66
-47,213
-67,096
-60,835
-43,308
-26,307
-16,08
-17,655
-23,8
-29,097
-33,056
-33,545
-32,996
-33,828
-34,909
-36,035
-37,024
-37,201
-36,879
-36,452
-35,711
-34,592
-33,445
-32,465
-31,756
-31,475
-31,503
-31,669
-31,957
-32,324
-32,684
-32,996
-33,221
-33,315
-33,299
-33,194
-32,997
-32,699
-32,273
-31,697
-30,958
-30,059
-29,023
-27,884
-26,693
-25,502
-24,341
-23,237
-22,204
-21,25
-20,38
-19,593
-18,878
-18,231
-17,656
-17,158
-16,746
-16,426
-16,194
-16,045
-15,972
-15,965
-16,016
-16,121
-16,273
-16,468
-16,704
-16,98
-17,3
-17,665
-18,073
-18,521
-19,005
-19,521
-20,063
-20,628
-21,211
-21,805
-22,408
-23,017
-23,629
-24,241
-24,852
-25,458
-26,058
-26,65
-27,23
-27,798
-28,35
-28,885
-29,401
-29,896
-30,369
-30,82
-31,247
-31,649
-32,025
-32,376
-32,7
-32,997
-33,267
-33,509
-33,724
-33,911
-34,072
-34,207
-34,317
-34,402
-34,465
-34,506
-34,526
-34,527
-34,51
-34,475
-34,423
-34,356
-34,274
-34,178
-34,069
-33,949
-33,817
-33,674
-33,521
-33,357
-33,183
-32,998
-32,802
-32,594
-32,374
-32,14
-31,892
-31,629
-31,35
-31,053
-30,737
-30,4
-30,043
-29,662
-29,258
-28,828
-28,372
-27,889
-27,377
-26,836
-26,265
-25,662
-25,028
-24,361
-23,661
-22,929
-22,163
-21,365
-20,536
-19,677
-18,789
-17,876
-16,939
-15,981
-15,007
-14,019
-13,023
-12,023
-11,025
-10,033
-9,054
-8,094
-7,157
-6,251
-5,381
-4,554
-3,775
-3,051
-2,386
-1,788
-1,26
-0,81
-0,442
-0,16
0,031
0,126
0,123
0,019
-0,189
-0,502
-0,923
-1,45
-2,085
-2,825
-3,669
-4,614
-5,657
-6,792
-8,015
-9,319
-10,696
-12,139
-13,639
-15,186
-16,769
-18,38
-20,006
-21,637
-23,261
-24,865
-26,438
-27,968
-29,443
-30,851
-32,179
-33,416
-34,552
-35,576
-36,479
-37,25
-37,881
-38,364
-38,693
-38,861
-38,863
-38,695
-38,355
-37,84
-37,15
-36,287
-35,253
-34,052
-32,693
-31,185
-29,54
-27,772
-25,896
-23,927
-21,883
-19,783
-17,643
-15,479
-13,306
-11,141
-9,002
-6,911
-4,888
-2,954
-1,126
0,576
2,137
3,537
4,764
5,812
6,676
7,346
7,807
8,028
7,984
7,66
7,048
6,144
4,961
3,51
1,82
-0,056
-2,066
-4,153
-6,272
-8,392
-10,479
-12,486
-14,344
-15,965
-17,267
-18,198
-18,721
-18,814
-18,502
-17,819
-16,849
-15,728
-14,574
-13,527
-12,733
-12,322
-12,449
-13,27
-14,918
-17,601
-21,603
-27,018
-33,751
-41,498
-49,648
-57,652
-65,142
-71,572
-76,202
-78,587
-78,752
-77,309
-75,62
-74,857
-75,322
-77,195
-80,888
-86,348
-92,775
-98,345
-99,722
-93,424
-77,49
-50,297
-9,462
46,621
118,565
206,12
304,72
408,746
516,277
623,091
726,686
825,339
907,746
964,782
988,396
969,704
914,478
831,864
728,685
613,792
486,356
342,164
188,65
39,53
-88,034
-174,783
-218,206
-230,096
-222,159
-208,479
-194,901
-177,755
-157,424
-135,219
-113,172
-96,094
-85,53
-80,492
-79,884
-81,545
-83,203
-83,226
-80,707
-75,54
-68,264
-59,745
-50,726
-41,844
-33,886
-27,635
-23,475
-21,451
-21,337
-22,687
-25,14
-28,436
-32,259
-36,275
-40,186
-43,713
-46,643
-48,876
-50,336
-50,962
-50,728
-49,617
-47,649
-44,896
-41,446
-37,388
-32,806
-27,772
-22,358
-16,651
-10,747
-4,744
1,261
7,204
13,044
18,749
24,299
29,682
34,897
39,961
44,898
49,726
54,455
59,086
63,62
68,062
72,421
76,701
80,907
85,039
89,094
93,069
96,958
100,754
104,446
108,02
111,46
114,755
117,894
120,867
123,668
126,286
128,712
130,939
132,958
134,76
136,335
137,672
138,76
139,588
140,148
140,432
140,432
140,141
139,556
138,671
137,485
135,997
134,205
132,111
129,717
127,026
124,042
120,77
117,219
113,396
109,311
104,976
100,403
95,605
90,597
85,392
80,008
74,461
68,769
62,949
57,02
51,004
44,92
38,79
32,637
26,48
20,343
14,245
8,207
2,249
-3,612
-9,357
-14,971
-20,438
-25,743
-30,872
-35,815
-40,559
-45,095
-49,415
-53,511
-57,379
-61,013
-64,41
-67,57
-70,49
-73,173
-75,619
-77,831
-79,813
-81,57
-83,108
-84,436
-85,56
-86,492
-87,242
-87,82
-88,238
-88,509
-88,643
-88,654
-88,552
-88,35
-88,06
-87,691
-87,255
-86,763
-86,225
-85,65
-85,047
-84,427
-83,795
-83,162
-82,533
-81,916
-81,318
-80,743
-80,198
-79,688
-79,217
-78,789
-78,408
-78,075
-77,794
-77,564
-77,386
-77,26
-77,184
-77,157
-77,176
-77,24
-77,346
-77,49
-77,672
-77,888
-78,136
-78,415
-78,722
-79,056
-79,415
-79,799
-80,206
-80,636
-81,088
-81,562
-82,055
-82,569
-83,103
-83,655
-84,224
-84,811
-85,413
-86,031
-86,662
-87,307
-87,966
-88,637
-89,321
-90,018
-90,73
-91,456
-92,198
-92,957
-93,734
-94,53
-95,346
-96,181
-97,035
-97,908
-98,799
-99,705
-100,626
-101,558
-102,499
-103,446
-104,396
-105,345
-106,291
-107,228
-108,155
-109,067
-109,963
-110,837
-111,689
-112,516
-113,316
-114,086
-114,826
-115,534
-116,207
-116,845
-117,447
-118,01
-118,532
-119,013
-119,452
-119,847
-120,198
-120,506
-120,771
-120,994
-121,177
-121,323
-121,434
-121,513
-121,565
-121,593
-121,6
-121,593
-121,575
-121,552
-121,527
-121,506
-121,494
-121,493
-121,508
-121,54
-121,593
-121,667
-121,764
-121,883
-122,023
-122,184
-122,364
-122,563
-122,778
-123,007
-123,246
-123,492
-123,74
-123,985
-124,221
-124,441
-124,638
-124,805
-124,931
-125,01
-125,033
-124,991
-124,874
-124,672
-124,378
-123,981
-123,473
-122,845
-122,09
-121,2
-120,172
-119
-117,684
-116,221
-114,614
-112,867
-110,984
-108,972
-106,84
-104,598
-102,257
-99,827
-97,323
-94,757
-92,142
-89,494
-86,829
-84,164
-81,517
-78,908
-76,359
-73,891
-71,523
-69,276
-67,167
-65,207
-63,41
-61,787
-60,353
-59,132
-58,14
-57,391
-56,901
-56,68
-56,731
-57,05
-57,612
-58,375
-59,299
-60,341
-61,464
-62,645
-63,848
-65,035
-66,164
-67,176
-68,021
-68,659
-69,038
-69,117
-68,865
-68,282
-67,443
-66,474
-65,498
-64,622
-63,911
-63,428
-63,305
-63,679
-64,668
-66,377
-68,847
-72,177
-76,631
-82,316
-89,081
-96,571
-104,087
-110,924
-116,615
-120,493
-121,656
-119,697
-114,779
-107,601
-99,562
-92,02
-86,098
-83,226
-84,894
-90,058
-94,783
-95,067
-88,053
-76,427
-66,578
-59,196
-46,022
-9,74
67,587
192,224
353,377
526,934
687,517
815,912
906,154
963,305
993,172
1003,633
995,064
957,897
884,092
761,19
586,033
376,129
156,499
-37,029
-174,005
-248,36
-269,853
-262,257
-248,892
-238,012
-228,225
-212,404
-186,977
-156,471
-127,045
-103,999
-89,54
-82,505
-81,339
-84,82
-90,646
-95,542
-97,525
-95,931
-90,793
-82,979
-72,947
-60,4
-46,141
-32,041
-19,325
-8,716
-0,476
5,823
10,298
12,604
12,816
11,385
8,988
6,41
3,791
1,131
-1,38
-4,06
-5,204
-3,147
0,066
3,759
4,036
-3,742
-14,336
-24,193
-28,129
-19,097
-3,394
13,605
28,193
34,309
36,162
38
40,678
46,71
54,469
61,938
69,461
76,766
83,949
91,343
98,65
105,658
112,432
118,989
125,305
131,366
137,196
142,831
148,339
153,802
159,222
164,577
169,869
175,089
180,23
185,289
190,244
195,06
199,716
204,195
208,479
212,558
216,41
220,007
223,321
226,328
229,004
231,329
233,286
234,855
236,023
236,777
237,111
237,02
236,5
235,543
234,147
232,308
230,026
227,301
224,136
220,537
216,511
212,07
207,228
202,001
196,411
190,476
184,221
177,67
170,851
163,791
156,519
149,064
141,459
133,736
125,927
118,066
110,186
102,32
94,5
86,757
79,122
71,623
64,288
57,142
50,21
43,516
37,082
30,926
25,068
19,522
14,303
9,422
4,888
0,705
-3,121
-6,591
-9,706
-12,47
-14,889
-16,972
-18,729
-20,171
-21,312
-22,167
-22,753
-23,089
-23,193
-23,085
-22,785
-22,315
-21,696
-20,947
-20,09
-19,145
-18,13
-17,066
-15,97
-14,86
-13,755
-12,669
-11,619
-10,619
-9,683
-8,821
-8,046
-7,366
-6,79
-6,324
-5,973
-5,742
-5,634
-5,651
-5,792
-6,058
-6,446
-6,953
-7,576
-8,309
-9,146
-10,08
-11,104
-12,212
-13,396
-14,647
-15,959
-17,324
-18,736
-20,186
-21,667
-23,174
-24,698
-26,234
-27,775
-29,315
-30,849
-32,371
-33,877
-35,362
-36,822
-38,253
-39,652
-41,015
-42,34
-43,624
-44,865
-46,062
-47,215
-48,324
-49,388
-50,409
-51,388
-52,327
-53,229
-54,096
-54,93
-55,734
-56,509
-57,259
-57,987
-58,694
-59,382
-60,055
-60,714
-61,362
-62,001
-62,634
-63,262
-63,888
-64,515
-65,144
-65,779
-66,421
-67,073
-67,739
-68,421
-69,121
-69,843
-70,588
-71,359
-72,157
-72,984
-73,841
-74,727
-75,643
-76,589
-77,562
-78,563
-79,589
-80,638
-81,709
-82,799
-83,906
-85,026
-86,156
-87,293
-88,433
-89,572
-90,703
-91,823
-92,926
-94,006
-95,056
-96,07
-97,042
-97,963
-98,826
-99,624
-100,347
-100,987
-101,535
-101,983
-102,323
-102,545
-102,644
-102,611
-102,442
-102,13
-101,672
-101,065
-100,305
-99,391
-98,321
-97,097
-95,718
-94,188
-92,51
-90,687
-88,729
-86,645
-84,446
-82,146
-79,758
-77,299
-74,784
-72,231
-69,658
-67,079
-64,509
-61,966
-59,469
-57,038
-54,696
-52,464
-50,363
-48,412
-46,631
-45,039
-43,65
-42,473
-41,514
-40,779
-40,282
-40,048
-40,099
-40,451
-41,113
-42,09
-43,375
-44,962
-46,828
-48,928
-51,211
-53,625
-56,117
-58,654
-61,199
-63,701
-66,099
-68,304
-70,231
-71,823
-73,026
-73,807
-74,159
-74,084
-73,631
-72,908
-72,012
-71,069
-70,235
-69,628
-69,415
-69,777
-70,847
-72,869
-76,141
-80,777
-86,773
-93,901
-101,615
-109,447
-117,013
-123,664
-128,678
-131,547
-131,971
-130,495
-128,401
-126,679
-126,106
-127,314
-130,707
-136,648
-145,051
-154,159
-160,884
-162,052
-154,309
-134,902
-101,477
-51,368
17,319
104,786
209,333
327,639
455,168
585,366
711,09
826,348
923,568
998,991
1049,795
1067,761
1050,957
995,98
899,502
767,909
601,11
405,083
196,288
-6,626
-173,089
-282,057
-331,04
-330,706
-307,145
-279,397
-254,472
-232,749
-207,464
-177,805
-147,774
-121,13
-102,879
-94,739
-95,417
-102,97
-113,64
-123,287
-129,917
-132,71
-131,51
-126,671
-117,998
-105,706
-91,326
-76,922
-63,894
-53,152
-44,991
-38,947
-35,227
-34,11
-34,513
-37,005
-42,557
-48,769
-54,811
-57,545
-50,868
-37,921
-24,03
-14,607
-20,259
-39,93
-63,258
-83,241
-88,915
-76,971
-57,919
-38,102
-23,769
-19,727
-19,742
-19,736
-18,513
-13,5
-6,739
-0,139
6,764
13,56
20,331
27,504
34,78
41,891
48,855
55,613
62,088
68,3
74,276
80,008
85,517
90,844
95,983
100,954
105,807
110,557
115,202
119,74
124,157
128,441
132,59
136,593
140,422
144,056
147,48
150,679
153,647
156,367
158,819
160,979
162,824
164,335
165,498
166,297
166,718
166,751
166,387
165,623
164,457
162,889
160,916
158,536
155,75
152,56
148,969
144,985
140,614
135,867
130,758
125,303
119,522
113,433
107,06
100,426
93,555
86,473
79,207
71,784
64,231
56,578
48,854
41,088
33,31
25,549
17,833
10,192
2,653
-4,757
-12,012
-19,086
-25,957
-32,602
-38,998
-45,127
-50,971
-56,512
-61,739
-66,637
-71,199
-75,415
-79,283
-82,799
-85,964
-88,779
-91,25
-93,381
-95,181
-96,66
-97,828
-98,697
-99,281
-99,595
-99,654
-99,474
-99,074
-98,47
-97,681
-96,725
-95,622
-94,39
-93,049
-91,618
-90,116
-88,561
-86,972
-85,365
-83,758
-82,167
-80,606
-79,088
-77,626
-76,23
-74,91
-73,675
-72,53
-71,481
-70,532
-69,686
-68,944
-68,307
-67,774
-67,343
-67,01
-66,773
-66,626
-66,565
-66,582
-66,673
-66,828
-67,043
-67,307
-67,615
-67,956
-68,323
-68,706
-69,099
-69,491
-69,876
-70,245
-70,592
-70,91
-71,193
-71,436
-71,634
-71,785
-71,885
-71,932
-71,924
-71,862
-71,745
-71,574
-71,351
-71,078
-70,758
-70,396
-69,994
-69,558
-69,092
-68,602
-68,093
-67,571
-67,04
-66,508
-65,979
-65,46
-64,956
-64,472
-64,014
-63,587
-63,196
-62,846
-62,539
-62,279
-62,07
-61,913
-61,809
-61,76
-61,767
-61,829
-61,945
-62,115
-62,337
-62,609
-62,928
-63,292
-63,697
-64,139
-64,615
-65,12
-65,649
-66,198
-66,762
-67,337
-67,917
-68,498
-69,076
-69,645
-70,201
-70,739
-71,255
-71,743
-72,2
-72,62
-72,999
-73,333
-73,617
-73,847
-74,02
-74,132
-74,18
-74,159
-74,068
-73,902
-73,658
-73,335
-72,928
-72,435
-71,854
-71,181
-70,415
-69,553
-68,593
-67,534
-66,374
-65,11
-63,741
-62,267
-60,687
-59
-57,207
-55,308
-53,306
-51,204
-49,004
-46,712
-44,333
-41,874
-39,347
-36,761
-34,13
-31,467
-28,784
-26,099
-23,425
-20,778
-18,17
-15,613
-13,12
-10,705
-8,385
-6,177
-4,096
-2,158
-0,377
1,234
2,662
3,897
4,939
5,787
6,437
6,881
7,096
7,059
6,761
6,193
5,351
4,248
2,895
1,319
-0,429
-2,299
-4,244
-6,218
-8,199
-10,155
-12,044
-13,808
-15,365
-16,634
-17,559
-18,089
-18,181
-17,841
-17,091
-15,997
-14,68
-13,234
-11,763
-10,384
-9,205
-8,371
-8,045
-8,359
-9,517
-11,814
-15,395
-20,247
-26,117
-32,366
-38,312
-43,374
-46,81
-47,803
-45,86
-40,934
-33,814
-26,228
-20,009
-16,623
-17,298
-23,063
-34,312
-50,422
-69,057
-86,084
-96,585
-95,793
-79,503
-43,699
14,829
97,687
204,142
330,555
470,977
618,435
765,182
901,778
1018,396
1106,02
1158,237
1173,257
1151,609
1092,745
993,167
849,685
664,816
452,751
241,56
60,644
-70,238
-147,595
-188,091
-212,85
-232,741
-247,497
-246,182
-217,327
-165,286
-106,037
-56,907
-34,374
-39,242
-58,598
-81,022
-94,56
-95,252
-89,033
-79,714
-70,742
-63,659
-55,92
-46,879
-37,428
-28,476
-21,67
-17,706
-16,176
-16,677
-18,773
-22,036
-26,143
-30,742
-35,44
-39,929
-43,982
-47,388
-49,997
-51,711
-52,453
-52,185
-50,893
-48,596
-45,359
-41,28
-36,462
-31,001
-24,986
-18,499
-11,64
-4,522
2,74
10,035
17,283
24,433
31,442
38,283
44,939
51,404
57,694
63,837
69,85
75,744
81,525
87,193
92,759
98,232
103,624
108,943
114,192
119,372
124,481
129,518
134,477
139,347
144,116
148,768
153,289
157,67
161,899
165,966
169,86
173,568
177,079
180,381
183,461
186,305
188,898
191,224
193,269
195,019
196,461
197,581
198,368
198,809
198,894
198,614
197,96
196,924
195,499
193,682
191,467
188,852
185,838
182,426
178,62
174,425
169,849
164,904
159,6
153,953
147,979
141,695
135,122
128,28
121,193
113,884
106,378
98,704
90,889
82,961
74,949
66,883
58,792
50,704
42,648
34,653
26,746
18,953
11,301
3,815
-3,482
-10,564
-17,412
-24,005
-30,324
-36,353
-42,078
-47,486
-52,567
-57,312
-61,716
-65,775
-69,486
-72,849
-75,866
-78,54
-80,878
-82,887
-84,575
-85,954
-87,034
-87,83
-88,354
-88,623
-88,651
-88,453
-88,047
-87,449
-86,675
-85,743
-84,671
-83,476
-82,176
-80,788
-79,33
-77,818
-76,269
-74,698
-73,121
-71,55
-70,001
-68,484
-67,012
-65,596
-64,245
-62,968
-61,774
-60,668
-59,656
-58,742
-57,931
-57,223
-56,621
-56,125
-55,735
-55,45
-55,271
-55,194
-55,218
-55,341
-55,559
-55,87
-56,269
-56,751
-57,313
-57,948
-58,652
-59,418
-60,243
-61,119
-62,042
-63,007
-64,006
-65,036
-66,089
-67,161
-68,245
-69,337
-70,431
-71,523
-72,607
-73,681
-74,74
-75,782
-76,803
-77,8
-78,771
-79,713
-80,623
-81,499
-82,339
-83,141
-83,903
-84,623
-85,301
-85,934
-86,524
-87,068
-87,566
-88,019
-88,424
-88,784
-89,096
-89,362
-89,581
-89,755
-89,884
-89,969
-90,011
-90,012
-89,973
-89,896
-89,781
-89,63
-89,445
-89,227
-88,977
-88,698
-88,391
-88,059
-87,704
-87,328
-86,935
-86,526
-86,104
-85,672
-85,231
-84,786
-84,337
-83,888
-83,441
-82,998
-82,561
-82,134
-81,718
-81,315
-80,928
-80,558
-80,207
-79,876
-79,567
-79,279
-79,015
-78,774
-78,559
-78,368
-78,202
-78,062
-77,947
-77,856
-77,788
-77,743
-77,719
-77,714
-77,727
-77,755
-77,798
-77,852
-77,917
-77,989
-78,066
-78,148
-78,231
-78,313
-78,393
-78,469
-78,538
-78,599
-78,65
-78,691
-78,72
-78,735
-78,736
-78,723
-78,693
-78,648
-78,586
-78,507
-78,413
-78,302
-78,175
-78,033
-77,877
-77,707
-77,525
-77,331
-77,126
-76,912
-76,69
-76,46
-76,224
-75,982
-75,737
-75,487
-75,235
-74,979
-74,721
-74,461
-74,198
-73,933
-73,664
-73,392
-73,116
-72,835
-72,55
-72,258
-71,959
-71,652
-71,336
-71,009
-70,671
-70,32
-69,955
-69,575
-69,181
-68,77
-68,345
-67,904
-67,448
-66,978
-66,495
-65,999
-65,493
-64,978
-64,456
-63,93
-63,402
-62,877
-62,358
-61,848
-61,352
-60,874
-60,417
-59,985
-59,581
-59,211
-58,877
-58,583
-58,332
-58,128
-57,974
-57,874
-57,831
-57,846
-57,922
-58,058
-58,255
-58,513
-58,829
-59,2
-59,623
-60,095
-60,611
-61,166
-61,754
-62,367
-62,997
-63,637
-64,276
-64,905
-65,513
-66,088
-66,621
-67,1
-67,514
-67,853
-68,107
-68,265
-68,318
-68,257
-68,072
-67,755
-67,297
-66,691
-65,931
-65,01
-63,925
-62,673
-61,254
-59,669
-57,924
-56,025
-53,981
-51,801
-49,496
-47,078
-44,559
-41,951
-39,265
-36,513
-33,707
-30,865
-28,006
-25,149
-22,313
-19,513
-16,767
-14,091
-11,503
-9,012
-6,624
-4,347
-2,194
-0,187
1,636
3,246
4,623
5,755
6,638
7,276
7,675
7,858
7,874
7,771
7,596
7,384
7,152
6,928
6,764
6,727
6,905
7,37
8,165
9,311
10,81
12,643
14,76
17,082
19,48
21,801
23,885
25,572
26,711
27,151
26,745
25,279
22,45
18,122
12,378
5,524
-1,862
-9,243
-16,271
-22,465
-27,103
-29,79
-30,657
-30,429
-30,574
-32,34
-36,135
-42,162
-50,731
-61,531
-73,351
-83,956
-89,754
-87,217
-74,177
-48,855
-9,331
45,459
115,512
199,529
294,12
395,144
499,126
601,833
697,76
781,573
847,815
891,355
908,897
897,904
857,567
790,685
701,514
593,647
467,791
322,803
161,897
-2,865
-151,389
-263,296
-326,353
-343,477
-327,636
-292,103
-251,416
-211,078
-172,271
-140,003
-110,009
-80,872
-54,404
-27,598
-5,537
7,729
13,259
10,761
3,336
-5,336
-13,801
-20,583
-24,458
-24,965
-22,144
-16,619
-9,397
-1,717
5,185
10,543
13,658
14,161
12,232
8,244
2,808
-3,294
-9,357
-14,949
-19,799
-23,784
-26,903
-29,124
-30,437
-30,87
-30,473
-29,279
-27,284
-24,502
-20,972
-16,799
-12,168
-7,26
-2,2
2,929
8,086
13,252
18,393
23,485
28,524
33,494
38,378
43,156
47,795
52,278
56,617
60,841
65,005
69,162
73,346
77,575
81,856
86,184
90,551
94,941
99,324
103,678
107,984
112,228
116,4
120,488
124,473
128,333
132,043
135,575
138,907
142,013
144,872
147,463
149,769
151,778
153,478
154,863
155,92
156,641
157,015
157,034
156,69
155,976
154,885
153,414
151,559
149,322
146,706
143,714
140,354
136,635
132,567
128,165
123,444
118,42
113,111
107,538
101,722
95,686
89,455
83,054
76,508
69,846
63,095
56,283
49,436
42,584
35,751
28,963
22,246
15,625
9,122
2,76
-3,439
-9,453
-15,264
-20,852
-26,2
-31,293
-36,118
-40,663
-44,918
-48,875
-52,528
-55,873
-58,908
-61,633
-64,048
-66,157
-67,966
-69,479
-70,707
-71,658
-72,344
-72,776
-72,968
-72,933
-72,686
-72,241
-71,614
-70,819
-69,873
-68,789
-67,585
-66,274
-64,873
-63,396
-61,857
-60,272
-58,654
-57,017
-55,373
-53,734
-52,113
-50,519
-48,962
-47,453
-45,998
-44,606
-43,282
-42,031
-40,859
-39,766
-38,757
-37,832
-36,991
-36,234
-35,561
-34,97
-34,458
-34,023
-33,663
-33,374
-33,152
-32,993
-32,894
-32,851
-32,858
-32,912
-33,008
-33,142
-33,309
-33,505
-33,726
-33,966
-34,223
-34,492
-34,768
-35,048
-35,33
-35,609
-35,884
-36,152
-36,413
-36,663
-36,904
-37,133
-37,352
-37,56
-37,757
-37,944
-38,123
-38,294
-38,459
-38,62
-38,778
-38,935
-39,094
-39,256
-39,424
-39,6
-39,784
-39,98
-40,19
-40,416
-40,658
-40,92
-41,203
-41,509
-41,843
-42,201
-42,583
-42,987
-43,413
-43,862
-44,337
-44,832
-45,336
-45,862
-46,42
-47,016
-47,661
-48,338
-49,016
-49,712
-50,441
-51,148
-51,787
-52,323
-52,702
-52,956
-53,161
-53,266
-53,185
-53,122
-53,317
-53,616
-54,027
-54,593
-54,773
-56,002
-59,672
-63,781
-67,719
-67,812
-59,661
-48,128
-36,454
-29,467
-33,799
-43,583
-53,851
-61,196
-59,995
-54,281
-48,145
-42,505
-39,858
-38,774
-37,408
-36,128
-34,709
-33,283
-32,237
-31,334
-30,388
-29,478
-28,635
-27,847
-27,134
-26,522
-26,028
-25,701
-25,593
-25,684
-25,957
-26,423
-27,09
-27,985
-29,135
-30,546
-32,22
-34,161
-36,361
-38,805
-41,466
-44,285
-47,206
-50,176
-53,15
-56,103
-59,008
-61,816
-64,461
-66,859
-68,931
-70,636
-71,938
-72,807
-73,258
-73,331
-73,12
-72,771
-72,41
-72,152
-72,122
-72,443
-73,258
-74,738
-77,037
-80,359
-84,983
-91,002
-98,311
-106,6
-115,237
-123,535
-130,93
-136,723
-140,043
-140,476
-138,242
-134,158
-129,847
-126,931
-126,332
-128,834
-135,349
-145,948
-159,408
-173,273
-183,512
-185,666
-176,261
-152,13
-110,141
-48,043
34,908
137,433
255,901
383,228
510,502
629,803
734,269
822,156
895,925
953,273
986,979
984,338
930,304
820,414
660,678
466,43
259,831
61,303
-108,787
-235,821
-315,458
-351,871
-359,851
-354,036
-341,446
-322,839
-293,248
-250,108
-196,935
-140,364
-88,119
-45,595
-15,252
2,239
7,676
2,342
-11,565
-30,918
-52,669
-73,497
-90,506
-102,156
-107,652
-106,946
-101,065
-91,409
-79,604
-67,744
-57,386
-49,25
-43,735
-40,738
-39,778
-40,377
-41,833
-43,216
-43,967
-43,843
-42,744
-40,798
-38,113
-34,706
-30,69
-26,209
-21,339
-16,13
-10,595
-4,703
1,515
7,984
14,626
21,349
28,101
34,86
41,607
48,33
55,024
61,679
68,302
74,905
81,485
88,038
94,556
101,031
107,465
113,866
120,24
126,597
132,935
139,248
145,527
151,759
157,927
164,013
169,996
175,855
181,567
187,115
192,478
197,637
202,571
207,257
211,675
215,801
219,614
223,093
226,216
228,962
231,314
233,252
234,76
235,823
236,428
236,561
236,214
235,379
234,049
232,222
229,896
227,073
223,757
219,955
215,673
210,925
205,723
200,084
194,027
187,573
180,744
173,567
166,069
158,278
150,225
141,942
133,461
124,814
116,036
107,161
98,223
89,256
80,295
71,371
62,52
53,771
45,155
36,702
28,439
20,39
12,581
5,032
-2,236
-9,206
-15,863
-22,192
-28,181
-33,822
-39,107
-44,032
-48,592
-52,788
-56,621
-60,095
-63,214
-65,986
-68,42
-70,526
-72,313
-73,796
-74,987
-75,9
-76,55
-76,953
-77,123
-77,077
-76,832
-76,403
-75,806
-75,057
-74,17
-73,161
-72,043
-70,83
-69,534
-68,169
-66,746
-65,276
-63,771
-62,24
-60,693
-59,139
-57,585
-56,039
-54,508
-52,998
-51,513
-50,059
-48,639
-47,259
-45,92
-44,627
-43,382
-42,187
-41,044
-39,955
-38,921
-37,944
-37,025
-36,166
-35,367
-34,631
-33,959
-33,352
-32,812
-32,339
-31,935
-31,601
-31,337
-31,143
-31,02
-30,967
-30,983
-31,07
-31,224
-31,445
-31,732
-32,083
-32,495
-32,966
-33,492
-34,071
-34,699
-35,373
-36,087
-36,838
-37,621
-38,431
-39,264
-40,113
-40,974
-41,839
-42,704
-43,561
-44,405
-45,23
-46,03
-46,799
-47,533
-48,226
-48,874
-49,474
-50,021
-50,513
-50,946
-51,32
-51,632
-51,881
-52,069
-52,195
-52,26
-52,267
-52,218
-52,115
-51,963
-51,764
-51,523
-51,245
-50,934
-50,597
-50,239
-49,867
-49,486
-49,104
-48,728
-48,364
-48,019
-47,699
-47,409
-47,155
-46,943
-46,775
-46,657
-46,592
-46,581
-46,628
-46,733
-46,898
-47,122
-47,404
-47,743
-48,135
-48,579
-49,069
-49,603
-50,175
-50,781
-51,414
-52,068
-52,738
-53,417
-54,097
-54,771
-55,432
-56,071
-56,682
-57,257
-57,789
-58,27
-58,696
-59,061
-59,359
-59,586
-59,739
-59,815
-59,811
-59,726
-59,559
-59,311
-58,983
-58,576
-58,093
-57,538
-56,916
-56,23
-55,487
-54,692
-53,851
-52,973
-52,063
-51,129
-50,179
-49,221
-48,263
-47,314
-46,382
-45,475
-44,6
-43,766
-42,98
-42,247
-41,573
-40,965
-40,425
-39,958
-39,567
-39,255
-39,021
-38,868
-38,794
-38,799
-38,88
-39,035
-39,261
-39,553
-39,906
-40,315
-40,775
-41,279
-41,821
-42,394
-42,991
-43,604
-44,226
-44,85
-45,468
-46,073
-46,658
-47,215
-47,739
-48,223
-48,663
-49,053
-49,389
-49,667
-49,886
-50,042
-50,134
-50,162
-50,125
-50,024
-49,86
-49,636
-49,353
-49,015
-48,627
-48,191
-47,713
-47,197
-46,649
-46,075
-45,48
-44,869
-44,25
-43,629
-43,01
-42,401
-41,806
-41,233
-40,684
-40,167
-39,684
-39,241
-38,839
-38,483
-38,176
-37,918
-37,712
-37,559
-37,459
-37,413
-37,42
-37,48
-37,592
-37,754
-37,965
-38,223
-38,525
-38,869
-39,253
-39,674
-40,129
-40,614
-41,126
-41,662
-42,219
-42,793
-43,381
-43,979
-44,586
-45,197
-45,812
-46,427
-47,041
-47,651
-48,258
-48,859
-49,453
-50,041
-50,621
-51,193
-51,759
-52,316
-52,867
-53,41
-53,947
-54,476
-55
-55,517
-56,028
-56,533
-57,034
-57,53
-58,023
-58,514
-59,004
-59,493
-59,984
-60,477
-60,973
-61,474
-61,981
-62,493
-63,014
-63,542
-64,079
-64,625
-65,18
-65,745
-66,319
-66,9
-67,489
-68,083
-68,68
-69,28
-69,88
-70,479
-71,075
-71,666
-72,25
-72,825
-73,388
-73,937
-74,467
-74,976
-75,458
-75,909
-76,324
-76,697
-77,024
-77,298
-77,514
-77,666
-77,747
-77,752
-77,673
-77,505
-77,241
-76,877
-76,407
-75,829
-75,139
-74,336
-73,42
-72,394
-71,26
-70,023
-68,688
-67,261
-65,749
-64,159
-62,5
-60,778
-59,002
-57,18
-55,322
-53,441
-51,549
-49,662
-47,794
-45,962
-44,184
-42,476
-40,852
-39,322
-37,898
-36,59
-35,415
-34,395
-33,553
-32,905
-32,468
-32,252
-32,26
-32,489
-32,914
-33,491
-34,175
-34,918
-35,678
-36,429
-37,135
-37,761
-38,262
-38,58
-38,661
-38,464
-37,948
-37,085
-35,866
-34,314
-32,525
-30,648
-28,842
-27,255
-25,996
-25,169
-24,923
-25,401
-26,723
-29,024
-32,387
-36,949
-42,97
-50,52
-59,391
-69,216
-79,356
-89,046
-97,692
-104,531
-108,454
-108,877
-106,019
-100,392
-92,968
-85,229
-78,255
-72,895
-70,994
-71,827
-71,076
-67,324
-59,718
-49,056
-41,621
-33,333
-10,799
38,036
126,812
254,625
404,959
562,023
709,815
838,657
945,559
1027,747
1084,355
1114,494
1121,086
1104,477
1057,375
973,906
842,946
658,887
435,579
193,753
-35,134
-216,751
-335,36
-389,466
-389,156
-352,856
-293,865
-220,067
-141,051
-69,279
-17,127
7,096
5,237
-10,107
-26,523
-36,535
-39,366
-41,269
-45,833
-52,983
-60,811
-64,586
-62,152
-54,42
-42,664
-29,288
-16,765
-6,016
2,349
7,582
9,684
8,823
5,19
-0,417
-6,987
-13,853
-20,484
-26,465
-31,706
-36,101
-39,506
-41,95
-43,467
-44,063
-43,753
-42,479
-40,17
-36,817
-32,472
-27,235
-21,271
-14,768
-7,895
-0,81
6,373
13,576
20,738
27,825
34,812
41,69
48,447
55,059
61,498
67,742
73,783
79,638
85,348
90,96
96,52
102,067
107,625
113,21
118,827
124,474
130,136
135,795
141,433
147,039
152,609
158,137
163,617
169,038
174,384
179,638
184,78
189,792
194,653
199,343
203,845
208,141
212,218
216,062
219,661
222,999
226,061
228,829
231,286
233,416
235,201
236,625
237,673
238,332
238,592
238,442
237,876
236,888
235,473
233,631
231,36
228,661
225,54
222,001
218,051
213,7
208,96
203,844
198,368
192,548
186,404
179,956
173,228
166,242
159,025
151,601
144
136,247
128,373
120,407
112,38
104,321
96,261
88,231
80,261
72,38
64,617
56,998
49,549
42,295
35,26
28,464
21,928
15,669
9,704
4,048
-1,288
-6,292
-10,957
-15,276
-19,244
-22,86
-26,122
-29,033
-31,595
-33,815
-35,698
-37,253
-38,491
-39,424
-40,064
-40,426
-40,525
-40,379
-40,005
-39,421
-38,646
-37,7
-36,603
-35,375
-34,036
-32,605
-31,101
-29,545
-27,954
-26,346
-24,738
-23,146
-21,585
-20,069
-18,61
-17,222
-15,913
-14,694
-13,571
-12,553
-11,644
-10,849
-10,17
-9,609
-9,166
-8,843
-8,636
-8,545
-8,564
-8,691
-8,919
-9,244
-9,657
-10,153
-10,724
-11,361
-12,056
-12,801
-13,588
-14,41
-15,257
-16,122
-16,999
-17,88
-18,758
-19,629
-20,486
-21,326
-22,143
-22,935
-23,7
-24,436
-25,142
-25,817
-26,462
-27,077
-27,664
-28,225
-28,762
-29,278
-29,775
-30,259
-30,732
-31,2
-31,667
-32,138
-32,618
-33,113
-33,625
-34,162
-34,725
-35,32
-35,949
-36,616
-37,323
-38,072
-38,865
-39,703
-40,587
-41,517
-42,491
-43,509
-44,569
-45,668
-46,804
-47,974
-49,174
-50,401
-51,649
-52,916
-54,196
-55,485
-56,777
-58,066
-59,347
-60,615
-61,862
-63,084
-64,275
-65,43
-66,543
-67,611
-68,63
-69,596
-70,506
-71,358
-72,151
-72,883
-73,553
-74,161
-74,709
-75,196
-75,625
-75,997
-76,315
-76,581
-76,799
-76,971
-77,1
-77,191
-77,246
-77,27
-77,265
-77,237
-77,19
-77,127
-77,054
-76,975
-76,895
-76,817
-76,746
-76,686
-76,639
-76,609
-76,597
-76,604
-76,633
-76,683
-76,754
-76,845
-76,955
-77,082
-77,224
-77,378
-77,541
-77,709
-77,878
-78,045
-78,207
-78,359
-78,498
-78,62
-78,722
-78,8
-78,851
-78,872
-78,859
-78,809
-78,718
-78,585
-78,406
-78,18
-77,904
-77,576
-77,197
-76,767
-76,291
-75,768
-75,193
-74,566
-73,887
-73,158
-72,393
-71,592
-70,742
-69,857
-68,975
-68,124
-67,34
-66,628
-65,943
-65,285
-64,713
-64,191
-63,612
-62,897
-61,954
-60,779
-59,525
-58,229
-56,741
-55,237
-54,274
-53,947
-54,106
-54,826
-55,481
-57,282
-63,652
-73,657
-84,229
-90,008
-81,196
-58,91
-32,841
-12,827
-12,814
-32,964
-60,224
-84,55
-94,877
-89,835
-79,211
-68,828
-62,869
-62,345
-63,232
-63,831
-64,238
-64,323
-64,696
-65,463
-66,081
-66,393
-66,483
-66,329
-65,902
-65,22
-64,303
-63,201
-62,007
-60,748
-59,384
-57,908
-56,329
-54,655
-52,9
-51,071
-49,166
-47,196
-45,178
-43,129
-41,062
-38,99
-36,924
-34,876
-32,86
-30,893
-28,99
-27,171
-25,45
-23,845
-22,37
-21,039
-19,864
-18,851
-18,004
-17,328
-16,834
-16,54
-16,463
-16,614
-16,997
-17,61
-18,446
-19,487
-20,704
-22,053
-23,492
-24,98
-26,488
-28
-29,497
-30,956
-32,337
-33,58
-34,631
-35,446
-35,997
-36,262
-36,238
-35,957
-35,489
-34,954
-34,452
-34,05
-33,807
-33,78
-34,053
-34,738
-35,953
-37,792
-40,394
-43,967
-48,575
-54,114
-60,269
-66,431
-71,989
-76,497
-79,46
-80,271
-78,7
-75,007
-69,973
-65,082
-61,641
-60,195
-61,136
-64,924
-71,325
-79,244
-86,626
-90,106
-86,424
-73,588
-49,764
-12,925
37,848
102,486
180,027
267,281
360,309
456,273
549,521
633,382
704,876
759,101
794,544
812,703
806,302
771,692
707,802
610,829
489,189
350,658
198,405
46,261
-93,51
-209,309
-284,831
-319,407
-323,368
-306,515
-283,16
-259,752
-233,536
-205,396
-176,314
-148,075
-125,562
-110,3
-101,113
-96,683
-94,602
-92,587
-89,338
-84,16
-76,929
-68,128
-58,585
-49,08
-40,397
-33,402
-28,753
-26,709
-27,2
-29,865
-34,174
-39,634
-45,808
-52,262
-58,579
-64,419
-69,55
-73,85
-77,254
-79,703
-81,111
-81,375
-80,448
-78,342
-75,124
-70,904
-65,82
-60,037
-53,724
-47,042
-40,148
-33,171
-26,203
-19,296
-12,49
-5,803
0,735
7,077
13,198
19,087
24,749
30,202
35,478
40,618
45,665
50,664
55,651
60,649
65,669
70,711
75,765
80,815
85,848
90,856
95,831
100,766
105,651
110,476
115,228
119,891
124,449
128,881
133,169
137,297
141,248
145,008
148,565
151,906
155,019
157,894
160,515
162,869
164,94
166,714
168,176
169,311
170,109
170,556
170,645
170,368
169,72
168,697
167,296
165,516
163,359
160,825
157,92
154,648
151,016
147,033
142,708
138,055
133,085
127,816
122,265
116,448
110,386
104,1
97,611
90,944
84,122
77,169
70,111
62,975
55,786
48,571
41,359
34,175
27,046
19,996
13,05
6,23
-0,441
-6,944
-13,26
-19,371
-25,261
-30,916
-36,322
-41,467
-46,342
-50,938
-55,248
-59,268
-62,995
-66,428
-69,565
-72,41
-74,964
-77,233
-79,221
-80,936
-82,386
-83,581
-84,532
-85,251
-85,751
-86,046
-86,151
-86,081
-85,85
-85,474
-84,966
-84,343
-83,618
-82,805
-81,918
-80,97
-79,973
-78,941
-77,884
-76,815
-75,741
-74,674
-73,621
-72,59
-71,588
-70,622
-69,695
-68,814
-67,983
-67,205
-66,483
-65,82
-65,216
-64,671
-64,185
-63,757
-63,385
-63,066
-62,797
-62,576
-62,4
-62,265
-62,17
-62,111
-62,086
-62,092
-62,128
-62,19
-62,279
-62,391
-62,526
-62,683
-62,861
-63,062
-63,284
-63,528
-63,796
-64,086
-64,4
-64,738
-65,1
-65,486
-65,898
-66,335
-66,799
-67,291
-67,811
-68,362
-68,944
-69,559
-70,209
-70,893
-71,614
-72,371
-73,164
-73,993
-74,857
-75,757
-76,689
-77,654
-78,647
-79,668
-80,712
-81,776
-82,857
-83,95
-85,051
-86,156
-87,261
-88,362
-89,456
-90,539
-91,608
-92,66
-93,691
-94,7
-95,683
-96,637
-97,56
-98,449
-99,301
-100,115
-100,887
-101,615
-102,297
-102,931
-103,513
-104,042
-104,514
-104,927
-105,279
-105,568
-105,793
-105,951
-106,042
-106,065
-106,017
-105,898
-105,706
-105,439
-105,095
-104,671
-104,165
-103,575
-102,899
-102,132
-101,274
-100,321
-99,27
-98,121
-96,87
-95,515
-94,056
-92,491
-90,821
-89,047
-87,172
-85,2
-83,138
-80,993
-78,773
-76,489
-74,151
-71,77
-69,359
-66,93
-64,492
-62,056
-59,637
-57,244
-54,892
-52,597
-50,374
-48,239
-46,21
-44,302
-42,534
-40,917
-39,459
-38,169
-37,054
-36,128
-35,41
-34,922
-34,672
-34,673
-34,933
-35,453
-36,224
-37,22
-38,39
-39,684
-41,053
-42,449
-43,846
-45,208
-46,49
-47,648
-48,613
-49,329
-49,757
-49,858
-49,592
-48,946
-47,942
-46,673
-45,295
-43,959
-42,794
-41,896
-41,359
-41,302
-41,829
-43,032
-45,034
-47,913
-51,826
-57,012
-63,45
-70,977
-79,336
-87,875
-95,861
-102,686
-107,336
-108,785
-106,99
-102,024
-94,094
-84,682
-75,204
-66,818
-61,813
-60,18
-58,113
-53,253
-45,013
-36,434
-34,594
-40,092
-42,264
-22,247
37,042
142,912
287,889
451,497
617,49
771,002
898,168
993,308
1046,442
1053,924
1023,011
958,981
871,134
765,749
642,054
503,797
356,292
206,473
65,523
-58,301
-159,806
-235,138
-283,799
-306,876
-305,966
-284,372
-247,122
-199,615
-147,499
-96,382
-50,395
-12,841
13,565
27,926
30,938
24,13
10,143
-7,936
-27,503
-45,74
-60,157
-69,599
-73,669
-72,617
-67,595
-59,916
-50,888
-42,214
-35,17
-30,277
-27,781
-27,499
-28,906
-31,535
-34,769
-37,799
-40,128
-41,536
-41,913
-41,36
-39,97
-37,761
-34,837
-31,336
-27,335
-22,895
-18,045
-12,77
-7,115
-1,157
5,022
11,326
17,697
24,108
30,529
36,938
43,325
49,68
56,016
62,36
68,716
75,081
81,45
87,809
94,145
100,447
106,683
112,823
118,845
124,731
130,475
136,088
141,572
146,933
152,182
157,306
162,301
167,173
171,915
176,527
181,037
185,479
189,924
194,458
199,12
203,927
208,873
213,9
218,946
223,93
228,733
233,266
237,455
241,223
244,525
247,317
249,515
251,032
251,747
251,513
250,237
247,864
244,355
239,744
234,087
227,477
220,068
211,993
203,356
194,255
184,753
174,909
164,814
154,561
144,257
134,042
124,022
114,285
104,912
95,935
87,358
79,159
71,263
63,606
56,156
48,892
41,816
34,941
28,265
21,789
15,523
9,447
3,553
-2,167
-7,727
-13,122
-18,332
-23,328
-28,059
-32,477
-36,557
-40,277
-43,631
-46,621
-49,248
-51,522
-53,464
-55,088
-56,403
-57,422
-58,151
-58,601
-58,789
-58,734
-58,459
-57,989
-57,345
-56,548
-55,618
-54,573
-53,428
-52,198
-50,892
-49,52
-48,096
-46,631
-45,138
-43,629
-42,116
-40,608
-39,116
-37,65
-36,217
-34,823
-33,472
-32,17
-30,92
-29,724
-28,585
-27,503
-26,48
-25,517
-24,614
-23,772
-22,99
-22,268
-21,606
-21,003
-20,458
-19,969
-19,534
-19,15
-18,816
-18,528
-18,284
-18,081
-17,917
-17,789
-17,694
-17,63
-17,595
-17,586
-17,602
-17,64
-17,699
-17,776
-17,873
-17,987
-18,119
-18,268
-18,435
-18,619
-18,822
-19,042
-19,28
-19,534
-19,805
-20,09
-20,39
-20,702
-21,026
-21,36
-21,706
-22,061
-22,425
-22,8
-23,184
-23,578
-23,982
-24,395
-24,819
-25,252
-25,695
-26,147
-26,609
-27,079
-27,558
-28,045
-28,539
-29,038
-29,541
-30,047
-30,552
-31,056
-31,557
-32,052
-32,54
-33,021
-33,494
-33,958
-34,413
-34,859
-35,296
-35,725
-36,143
-36,553
-36,952
-37,342
-37,72
-38,088
-38,444
-38,788
-39,12
-39,439
-39,745
-40,037
-40,316
-40,579
-40,828
-41,061
-41,281
-41,486
-41,679
-41,861
-42,034
-42,199
-42,36
-42,516
-42,672
-42,827
-42,983
-43,142
-43,304
-43,47
-43,641
-43,817
-44,001
-44,191
-44,39
-44,596
-44,811
-45,034
-45,266
-45,507
-45,756
-46,014
-46,281
-46,557
-46,843
-47,138
-47,443
-47,757
-48,079
-48,409
-48,744
-49,084
-49,425
-49,766
-50,103
-50,435
-50,758
-51,071
-51,37
-51,654
-51,92
-52,166
-52,39
-52,59
-52,765
-52,912
-53,031
-53,12
-53,181
-53,212
-53,214
-53,187
-53,132
-53,05
-52,94
-52,804
-52,644
-52,458
-52,25
-52,02
-51,77
-51,502
-51,219
-50,924
-50,619
-50,309
-49,995
-49,682
-49,374
-49,073
-48,783
-48,508
-48,251
-48,015
-47,803
-47,62
-47,466
-47,344
-47,256
-47,204
-47,189
-47,21
-47,267
-47,362
-47,492
-47,658
-47,858
-48,091
-48,357
-48,653
-48,979
-49,333
-49,713
-50,117
-50,542
-50,987
-51,447
-51,922
-52,407
-52,9
-53,398
-53,899
-54,4
-54,898
-55,391
-55,877
-56,352
-56,816
-57,267
-57,703
-58,122
-58,525
-58,911
-59,281
-59,633
-59,97
-60,292
-60,599
-60,893
-61,173
-61,442
-61,698
-61,944
-62,178
-62,403
-62,618
-62,825
-63,023
-63,213
-63,396
-63,573
-63,744
-63,908
-64,067
-64,22
-64,367
-64,507
-64,641
-64,767
-64,885
-64,993
-65,09
-65,176
-65,247
-65,301
-65,337
-65,353
-65,344
-65,311
-65,25
-65,159
-65,038
-64,885
-64,701
-64,483
-64,234
-63,954
-63,644
-63,307
-62,942
-62,549
-62,135
-61,702
-61,256
-60,802
-60,339
-59,861
-59,378
-58,9
-58,415
-57,919
-57,4
-56,836
-56,264
-55,725
-55,211
-54,717
-54,29
-53,948
-53,75
-53,773
-53,924
-54,083
-54,268
-54,517
-54,647
-54,469
-54,098
-53,433
-52,63
-52,499
-51,345
-47,679
-43,679
-39,453
-40,364
-52,508
-68,675
-84,785
-91,999
-78,818
-56,38
-33,239
-17,857
-22,884
-38,138
-54,274
-66,907
-67,737
-62,327
-56,742
-51,508
-49,363
-48,725
-47,326
-45,779
-44,069
-42,258
-40,721
-39,257
-37,682
-36,077
-34,497
-32,923
-31,356
-29,865
-28,486
-27,258
-26,241
-25,428
-24,809
-24,392
-24,147
-24,03
-24,025
-24,096
-24,203
-24,302
-24,296
-24,101
-23,651
-22,871
-21,713
-20,145
-18,124
-15,625
-12,66
-9,26
-5,501
-1,481
2,759
7,169
11,686
16,237
20,671
24,841
28,616
31,82
34,267
35,781
36,186
35,35
33,212
29,706
24,801
18,497
10,741
1,526
-9,176
-21,458
-35,194
-50,058
-65,534
-80,795
-94,983
-107,433
-117,367
-123,847
-126,445
-125,291
-121,086
-115,301
-109,251
-103,561
-98,891
-96,138
-95,398
-95,605
-94,622
-88,98
-75,23
-51,061
-14,065
38,674
108,861
196,248
299,142
413,922
535,633
659,836
779,536
884,515
967,845
1025,251
1055,773
1063,692
1048,28
1004,813
928,917
814,459
661,981
478,274
275,798
75
-101,528
-232,232
-305,535
-322,72
-295,698
-242,987
-182,464
-129,76
-93,899
-79,661
-84,514
-97,52
-110,475
-115,712
-111,258
-103,581
-95,746
-89,218
-84,19
-77,205
-67,239
-55,454
-42,746
-30,625
-20,258
-12,031
-6,232
-3,046
-2,337
-3,74
-6,942
-11,629
-17,415
-23,949
-30,834
-37,667
-44,15
-50,066
-55,236
-59,537
-62,878
-65,178
-66,403
-66,533
-65,539
-63,436
-60,254
-56,06
-50,961
-45,094
-38,637
-31,763
-24,629
-17,371
-10,08
-2,816
4,383
11,492
18,505
25,41
32,189
38,831
45,325
51,666
57,869
63,96
69,979
75,968
81,963
87,991
94,063
100,182
106,343
112,529
118,716
124,885
131,02
137,103
143,125
149,073
154,929
160,675
166,29
171,75
177,031
182,11
186,964
191,571
195,912
199,968
203,726
207,168
210,279
213,042
215,439
217,455
219,072
220,277
221,055
221,393
221,283
220,716
219,689
218,199
216,245
213,828
210,954
207,627
203,856
199,651
195,025
189,993
184,569
178,773
172,625
166,146
159,36
152,291
144,966
137,412
129,657
121,731
113,663
105,486
97,229
88,925
80,605
72,301
64,045
55,867
47,797
39,865
32,097
24,52
17,158
10,033
3,166
-3,425
-9,723
-15,715
-21,387
-26,73
-31,735
-36,398
-40,713
-44,68
-48,297
-51,566
-54,491
-57,077
-59,329
-61,255
-62,865
-64,168
-65,178
-65,907
-66,369
-66,58
-66,557
-66,317
-65,877
-65,257
-64,474
-63,548
-62,496
-61,338
-60,091
-58,774
-57,403
-55,994
-54,564
-53,126
-51,694
-50,28
-48,896
-47,552
-46,256
-45,018
-43,845
-42,742
-41,717
-40,774
-39,917
-39,15
-38,476
-37,896
-37,413
-37,025
-36,733
-36,535
-36,429
-36,413
-36,481
-36,632
-36,859
-37,157
-37,521
-37,944
-38,42
-38,942
-39,504
-40,099
-40,72
-41,362
-42,019
-42,685
-43,356
-44,028
-44,695
-45,355
-46,004
-46,637
-47,253
-47,847
-48,418
-48,961
-49,475
-49,957
-50,404
-50,816
-51,189
-51,523
-51,816
-52,068
-52,277
-52,443
-52,568
-52,652
-52,696
-52,702
-52,674
-52,613
-52,523
-52,406
-52,267
-52,107
-51,932
-51,742
-51,542
-51,334
-51,121
-50,905
-50,69
-50,476
-50,267
-50,065
-49,872
-49,689
-49,52
-49,365
-49,228
-49,109
-49,012
-48,938
-48,889
-48,868
-48,875
-48,913
-48,981
-49,081
-49,212
-49,374
-49,565
-49,783
-50,026
-50,292
-50,578
-50,881
-51,198
-51,524
-51,857
-52,193
-52,528
-52,858
-53,18
-53,49
-53,785
-54,062
-54,318
-54,55
-54,757
-54,935
-55,083
-55,197
-55,277
-55,319
-55,321
-55,282
-55,199
-55,072
-54,899
-54,679
-54,414
-54,102
-53,746
-53,346
-52,904
-52,424
-51,907
-51,359
-50,781
-50,179
-49,557
-48,92
-48,273
-47,622
-46,97
-46,323
-45,686
-45,063
-44,458
-43,873
-43,314
-42,782
-42,281
-41,814
-41,382
-40,988
-40,635
-40,324
-40,057
-39,835
-39,659
-39,529
-39,447
-39,411
-39,421
-39,476
-39,575
-39,716
-39,897
-40,114
-40,366
-40,647
-40,954
-41,282
-41,626
-41,982
-42,344
-42,707
-43,068
-43,421
-43,764
-44,091
-44,401
-44,69
-44,956
-45,196
-45,408
-45,59
-45,741
-45,86
-45,946
-45,997
-46,014
-45,996
-45,943
-45,854
-45,73
-45,571
-45,376
-45,146
-44,882
-44,585
-44,256
-43,898
-43,512
-43,103
-42,673
-42,227
-41,766
-41,296
-40,818
-40,337
-39,854
-39,374
-38,897
-38,426
-37,963
-37,509
-37,067
-36,637
-36,22
-35,816
-35,427
-35,053
-34,694
-34,352
-34,028
-33,724
-33,441
-33,183
-32,95
-32,746
-32,574
-32,433
-32,326
-32,254
-32,216
-32,211
-32,238
-32,292
-32,371
-32,473
-32,595
-32,734
-32,887
-33,051
-33,226
-33,413
-33,609
-33,813
-34,023
-34,233
-34,442
-34,646
-34,838
-35,011
-35,159
-35,271
-35,34
-35,361
-35,323
-35,213
-35,017
-34,715
-34,295
-33,752
-33,083
-32,295
-31,398
-30,409
-29,355
-28,277
-27,204
-26,166
-25,184
-24,264
-23,426
-22,683
-22,041
-21,515
-21,105
-20,789
-20,541
-20,326
-20,076
-19,729
-19,202
-18,387
-17,204
-15,594
-13,506
-10,933
-7,87
-4,328
-0,347
4,03
8,747
13,71
18,823
23,981
29,035
33,854
38,295
42,182
45,383
47,792
49,325
49,953
49,681
48,536
46,582
43,895
40,556
36,663
32,303
27,563
22,535
17,285
11,899
6,469
1,036
-4,369
-9,778
-15,291
-20,972
-26,961
-33,499
-40,704
-48,606
-57,061
-65,565
-73,554
-80,621
-86,253
-89,859
-91,085
-89,764
-86,404
-82,43
-79,391
-78,405
-80,009
-84,838
-93,55
-105,865
-120,548
-133,326
-136,951
-127,83
-105,396
-70,875
-31,417
14,128
76,419
162,425
284,497
442,451
613,287
777,818
912,519
1000,581
1050,899
1068,863
1058,522
1025,443
962,768
870,472
755,355
622,297
474,92
310,661
129,877
-60,402
-238,309
-370,778
-435,976
-423,055
-345,856
-241,099
-142,849
-82,311
-70,05
-93,124
-133,116
-166,679
-181,83
-180,397
-168,087
-154,851
-145,019
-137,36
-130,404
-121,418
-109,999
-97,833
-86,068
-75,925
-68,241
-62,943
-59,857
-58,76
-59,199
-60,855
-63,507
-66,892
-70,735
-74,769
-78,725
-82,352
-85,456
-87,893
-89,544
-90,332
-90,222
-89,222
-87,378
-84,766
-81,481
-77,602
-73,207
-68,37
-63,163
-57,677
-52,007
-46,248
-40,491
-34,796
-29,201
-23,731
-18,393
-13,18
-8,073
-3,042
1,954
6,942
11,941
16,969
22,036
27,158
32,352
37,632
43,01
48,491
54,08
59,774
65,571
71,461
77,432
83,467
89,545
95,648
101,757
107,853
113,915
119,924
125,854
131,682
137,386
142,937
148,31
153,475
158,403
163,065
167,434
171,481
175,179
178,504
181,429
183,934
185,998
187,601
188,728
189,363
189,495
189,114
188,212
186,785
184,832
182,353
179,353
175,839
171,823
167,318
162,34
156,908
151,043
144,77
138,113
131,102
123,763
116,13
108,235
100,111
91,795
83,322
74,727
66,047
57,319
48,578
39,858
31,193
22,616
14,158
5,849
-2,282
-10,208
-17,904
-25,347
-32,515
-39,39
-45,956
-52,198
-58,105
-63,669
-68,883
-73,742
-78,244
-82,39
-86,18
-89,619
-92,713
-95,467
-97,89
-99,993
-101,785
-103,28
-104,49
-105,43
-106,113
-106,554
-106,768
-106,772
-106,578
-106,205
-105,665
-104,976
-104,151
-103,207
-102,157
-101,016
-99,796
-98,511
-97,173
-95,792
-94,378
-92,94
-91,486
-90,023
-88,558
-87,095
-85,641
-84,198
-82,771
-81,362
-79,974
-78,608
-77,266
-75,949
-74,657
-73,391
-72,152
-70,94
-69,756
-68,598
-67,469
-66,367
-65,292
-64,245
-63,224
-62,229
-61,26
-60,316
-59,396
-58,5
-57,627
-56,778
-55,952
-55,15
-54,373
-53,622
-52,897
-52,201
-51,535
-50,899
-50,297
-49,729
-49,197
-48,703
-48,249
-47,836
-47,466
-47,14
-46,858
-46,622
-46,43
-46,284
-46,182
-46,124
-46,108
-46,135
-46,203
-46,31
-46,456
-46,638
-46,856
-47,108
-47,392
-47,706
-48,047
-48,414
-48,804
-49,214
-49,641
-50,082
-50,534
-50,993
-51,458
-51,923
-52,387
-52,845
-53,294
-53,732
-54,155
-54,56
-54,946
-55,31
-55,65
-55,967
-56,259
-56,526
-56,768
-56,986
-57,18
-57,352
-57,502
-57,632
-57,743
-57,837
-57,916
-57,982
-58,037
-58,083
-58,123
-58,159
-58,193
-58,228
-58,266
-58,309
-58,359
-58,42
-58,492
-58,579
-58,684
-58,807
-58,951
-59,117
-59,308
-59,524
-59,766
-60,032
-60,32
-60,633
-60,971
-61,335
-61,724
-62,136
-62,561
-63,006
-63,477
-63,955
-64,424
-64,872
-65,28
-65,66
-66,039
-66,391
-66,689
-66,989
-67,331
-67,747
-68,29
-68,912
-69,525
-70,176
-70,952
-71,62
-71,907
-71,976
-71,81
-71,358
-71,207
-69,776
-65,525
-60,655
-55,836
-55,108
-63,312
-75,096
-86,895
-93,402
-87,321
-75,112
-62,249
-52,488
-52,027
-56,442
-61,246
-65,445
-66,308
-65,427
-64,849
-64,19
-63,714
-63,289
-62,505
-61,636
-60,904
-60,24
-59,632
-59,107
-58,664
-58,288
-57,973
-57,682
-57,368
-57,052
-56,752
-56,461
-56,181
-55,909
-55,641
-55,38
-55,13
-54,888
-54,647
-54,406
-54,162
-53,912
-53,655
-53,387
-53,105
-52,808
-52,491
-52,153
-51,791
-51,402
-50,983
-50,534
-50,051
-49,533
-48,978
-48,385
-47,753
-47,081
-46,368
-45,613
-44,816
-43,976
-43,095
-42,171
-41,206
-40,201
-39,158
-38,077
-36,962
-35,815
-34,639
-33,437
-32,212
-30,969
-29,711
-28,444
-27,171
-25,897
-24,629
-23,371
-22,129
-20,908
-19,713
-18,549
-17,421
-16,334
-15,291
-14,297
-13,355
-12,47
-11,645
-10,884
-10,19
-9,565
-9,012
-8,531
-8,125
-7,793
-7,534
-7,346
-7,229
-7,18
-7,194
-7,27
-7,401
-7,582
-7,807
-8,068
-8,358
-8,667
-8,986
-9,305
-9,614
-9,903
-10,162
-10,383
-10,554
-10,666
-10,71
-10,678
-10,56
-10,347
-10,032
-9,606
-9,063
-8,398
-7,605
-6,68
-5,623
-4,432
-3,11
-1,663
-0,095
1,588
3,376
5,261
7,231
9,275
11,383
13,543
15,74
17,96
20,184
22,391
24,563
26,682
28,73
30,688
32,541
34,273
35,876
37,343
38,661
39,814
40,771
41,506
42,003
42,249
42,238
41,975
41,467
40,734
39,817
38,759
37,596
36,365
35,082
33,769
32,464
31,219
30,108
29,207
28,558
28,199
28,156
28,414
28,946
29,686
30,512
31,324
32,014
32,461
32,574
32,23
31,285
29,634
27,087
23,39
18,459
12,324
5,214
-2,327
-9,809
-16,812
-22,709
-26,828
-28,708
-28,139
-25,665
-22,525
-19,727
-18,064
-18,184
-20,528
-25,514
-33,064
-41,525
-48,012
-49,524
-42,988
-25,903
4,006
49,489
112,525
192,928
288,54
395,832
510,03
626,161
738,241
838,562
919,447
974,527
999,269
991,091
949,322
874,807
771,07
644,735
504,048
357,963
215,1
83,348
-30,26
-120,155
-183,611
-220,979
-234,811
-229,307
-209,407
-180,501
-148,345
-118,18
-93,347
-75,208
-63,76
-57,961
-56,329
-57,098
-58,052
-57,032
-53,009
-45,982
-36,51
-25,525
-13,869
-2,265
8,372
17,109
23,487
27,429
29,103
28,881
27,006
23,662
19,149
13,838
8,116
2,38
-3,079
-8,099
-12,543
-16,309
-19,322
-21,513
-22,884
-23,468
-23,304
-22,409
-20,755
-18,321
-15,142
-11,299
-6,929
-2,202
2,74
7,802
12,899
17,98
23,009
27,963
32,857
37,726
42,594
47,463
52,309
57,101
61,832
66,516
71,184
75,881
80,639
85,478
90,428
95,503
100,705
106,031
111,456
116,947
122,476
128,023
133,572
139,112
144,622
150,081
155,463
160,74
165,885
170,869
175,657
180,217
184,519
188,537
192,25
195,638
198,682
201,364
203,667
205,574
207,072
208,146
208,783
208,972
208,704
207,971
206,772
205,104
202,969
200,373
197,321
193,824
189,894
185,545
180,794
175,658
170,159
164,319
158,162
151,714
145,002
138,055
130,903
123,577
116,106
108,523
100,856
93,137
85,393
77,653
69,944
62,29
54,717
47,249
39,909
32,718
25,697
18,865
12,239
5,833
-0,338
-6,264
-11,933
-17,34
-22,478
-27,342
-31,929
-36,238
-40,269
-44,025
-47,507
-50,722
-53,676
-56,374
-58,826
-61,041
-63,027
-64,795
-66,355
-67,715
-68,885
-69,875
-70,695
-71,352
-71,858
-72,219
-72,446
-72,548
-72,532
-72,409
-72,186
-71,87
-71,471
-70,996
-70,451
-69,845
-69,184
-68,474
-67,723
-66,938
-66,123
-65,284
-64,427
-63,556
-62,675
-61,788
-60,899
-60,011
-59,128
-58,253
-57,391
-56,545
-55,719
-54,917
-54,145
-53,405
-52,702
-52,04
-51,423
-50,854
-50,336
-49,873
-49,467
-49,12
-48,835
-48,612
-48,452
-48,356
-48,323
-48,351
-48,44
-48,588
-48,791
-49,048
-49,357
-49,714
-50,117
-50,562
-51,047
-51,568
-52,121
-52,702
-53,306
-53,929
-54,565
-55,21
-55,859
-56,505
-57,145
-57,771
-58,38
-58,967
-59,525
-60,052
-60,542
-60,991
-61,397
-61,756
-62,066
-62,327
-62,537
-62,696
-62,806
-62,867
-62,881
-62,849
-62,774
-62,659
-62,507
-62,32
-62,102
-61,857
-61,589
-61,303
-61,003
-60,694
-60,382
-60,07
-59,766
-59,472
-59,195
-58,939
-58,709
-58,51
-58,347
-58,225
-58,146
-58,116
-58,138
-58,213
-58,346
-58,536
-58,785
-59,093
-59,46
-59,885
-60,367
-60,904
-61,495
-62,136
-62,824
-63,558
-64,332
-65,143
-65,986
-66,857
-67,751
-68,662
-69,587
-70,519
-71,455
-72,389
-73,317
-74,234
-75,136
-76,019
-76,877
-77,707
-78,506
-79,269
-79,993
-80,676
-81,315
-81,907
-82,453
-82,95
-83,397
-83,794
-84,141
-84,437
-84,683
-84,88
-85,028
-85,129
-85,185
-85,197
-85,169
-85,102
-85
-84,864
-84,699
-84,506
-84,287
-84,046
-83,783
-83,501
-83,203
-82,889
-82,562
-82,222
-81,873
-81,514
-81,147
-80,772
-80,392
-80,006
-79,615
-79,22
-78,821
-78,419
-78,015
-77,61
-77,205
-76,8
-76,396
-75,994
-75,594
-75,195
-74,799
-74,405
-74,012
-73,622
-73,233
-72,846
-72,461
-72,078
-71,699
-71,324
-70,954
-70,589
-70,23
-69,877
-69,533
-69,197
-68,872
-68,557
-68,254
-67,963
-67,686
-67,422
-67,173
-66,937
-66,713
-66,502
-66,302
-66,111
-65,928
-65,752
-65,581
-65,415
-65,253
-65,092
-64,934
-64,776
-64,618
-64,458
-64,297
-64,134
-63,967
-63,797
-63,622
-63,443
-63,26
-63,073
-62,881
-62,685
-62,486
-62,283
-62,076
-61,867
-61,656
-61,443
-61,231
-61,022
-60,818
-60,62
-60,434
-60,26
-60,101
-59,961
-59,842
-59,745
-59,672
-59,624
-59,602
-59,606
-59,637
-59,693
-59,774
-59,879
-60,006
-60,152
-60,314
-60,488
-60,669
-60,854
-61,036
-61,21
-61,371
-61,514
-61,631
-61,718
-61,767
-61,772
-61,725
-61,62
-61,448
-61,203
-60,875
-60,46
-59,95
-59,341
-58,627
-57,805
-56,874
-55,835
-54,688
-53,434
-52,078
-50,624
-49,078
-47,448
-45,742
-43,966
-42,131
-40,247
-38,326
-36,381
-34,425
-32,471
-30,534
-28,631
-26,78
-24,996
-23,295
-21,686
-20,181
-18,792
-17,535
-16,431
-15,496
-14,742
-14,18
-13,819
-13,663
-13,71
-13,942
-14,319
-14,8
-15,345
-15,917
-16,493
-17,042
-17,53
-17,916
-18,154
-18,199
-18,021
-17,592
-16,887
-15,898
-14,635
-13,158
-11,601
-10,101
-8,792
-7,791
-7,156
-6,973
-7,368
-8,438
-10,295
-13,058
-16,76
-21,504
-27,501
-34,699
-42,866
-51,63
-60,181
-67,705
-73,653
-77,194
-77,431
-74,253
-67,926
-59,006
-49,068
-39,776
-32,091
-27,332
-27,015
-29,138
-31,015
-32,18
-28,864
-21,207
-10,559
12,171
53,315
118,829
215,105
332,917
461,334
590,941
709,094
811,859
895,708
954,793
986,271
984,983
949,211
882,997
791,173
680,655
554,139
408,13
244,932
73,114
-88,356
-211,959
-284,506
-305,591
-286,858
-249,441
-202,477
-150,541
-99,375
-54,298
-26,832
-24,53
-43,514
-71,84
-95,554
-105,656
-101,971
-91,678
-81,16
-72,802
-66,269
-58,718
-48,759
-37,94
-27,888
-19,826
-14,343
-11,047
-9,555
-9,956
-12,258
-16,016
-20,792
-26,147
-31,604
-36,971
-42,076
-46,656
-50,553
-53,692
-56,014
-57,521
-58,231
-58,119
-57,161
-55,305
-52,502
-48,767
-44,153
-38,776
-32,819
-26,45
-19,832
-13,11
-6,373
0,319
6,921
13,425
19,829
26,125
32,277
38,195
43,769
48,901
53,525
57,621
61,224
64,381
67,166
69,681
72,003
74,181
76,259
78,256
80,186
82,069
83,967
85,988
88,276
91,004
94,321
98,342
103,143
108,767
115,198
122,352
130,152
138,521
147,382
156,674
166,334
176,3
186,468
196,7
206,799
216,509
225,581
233,78
240,885
246,698
251,089
254,01
255,431
255,35
253,769
250,69
246,112
240,036
232,492
223,529
213,27
201,911
189,669
176,782
163,503
150,099
136,781
123,702
110,979
98,69
86,912
75,719
65,194
55,42
46,48
38,459
31,385
25,228
19,925
15,372
11,436
7,95
4,78
1,826
-0,977
-3,657
-6,24
-8,748
-11,212
-13,664
-16,148
-18,732
-21,455
-24,334
-27,356
-30,476
-33,624
-36,705
-39,64
-42,364
-44,839
-47,052
-49,001
-50,685
-52,109
-53,283
-54,203
-54,85
-55,211
-55,276
-55,049
-54,554
-53,827
-52,916
-51,867
-50,721
-49,509
-48,254
-46,969
-45,666
-44,348
-43,014
-41,669
-40,322
-38,985
-37,673
-36,395
-35,157
-33,959
-32,8
-31,679
-30,592
-29,535
-28,509
-27,513
-26,549
-25,623
-24,741
-23,908
-23,129
-22,406
-21,741
-21,135
-20,588
-20,099
-19,668
-19,294
-18,977
-18,717
-18,515
-18,37
-18,283
-18,253
-18,28
-18,363
-18,501
-18,693
-18,938
-19,232
-19,576
-19,967
-20,403
-20,883
-21,405
-21,965
-22,56
-23,189
-23,845
-24,526
-25,226
-25,94
-26,664
-27,393
-28,121
-28,846
-29,562
-30,266
-30,956
-31,627
-32,277
-32,903
-33,502
-34,07
-34,606
-35,107
-35,57
-35,994
-36,378
-36,719
-37,017
-37,272
-37,482
-37,648
-37,769
-37,848
-37,884
-37,88
-37,838
-37,761
-37,652
-37,516
-37,357
-37,179
-36,987
-36,786
-36,579
-36,371
-36,166
-35,967
-35,778
-35,602
-35,441
-35,298
-35,174
-35,072
-34,993
-34,939
-34,91
-34,907
-34,932
-34,983
-35,061
-35,166
-35,298
-35,456
-35,64
-35,848
-36,078
-36,33
-36,6
-36,887
-37,186
-37,494
-37,808
-38,124
-38,437
-38,744
-39,041
-39,325
-39,592
-39,84
-40,066
-40,27
-40,449
-40,602
-40,729
-40,83
-40,904
-40,952
-40,975
-40,973
-40,948
-40,901
-40,833
-40,747
-40,643
-40,523
-40,389
-40,243
-40,085
-39,919
-39,745
-39,567
-39,387
-39,208
-39,032
-38,864
-38,707
-38,562
-38,434
-38,325
-38,236
-38,17
-38,127
-38,109
-38,116
-38,147
-38,203
-38,283
-38,386
-38,51
-38,653
-38,813
-38,988
-39,175
-39,371
-39,574
-39,781
-39,99
-40,199
-40,406
-40,61
-40,808
-40,998
-41,179
-41,349
-41,505
-41,644
-41,764
-41,863
-41,939
-41,99
-42,013
-42,009
-41,976
-41,913
-41,821
-41,7
-41,551
-41,375
-41,172
-40,946
-40,699
-40,433
-40,152
-39,859
-39,558
-39,251
-38,943
-38,637
-38,334
-38,038
-37,751
-37,475
-37,211
-36,962
-36,73
-36,516
-36,324
-36,154
-36,009
-35,89
-35,8
-35,74
-35,71
-35,712
-35,746
-35,812
-35,911
-36,041
-36,201
-36,392
-36,61
-36,854
-37,123
-37,412
-37,719
-38,041
-38,375
-38,718
-39,067
-39,421
-39,776
-40,133
-40,489
-40,844
-41,197
-41,547
-41,894
-42,237
-42,576
-42,911
-43,242
-43,568
-43,89
-44,209
-44,526
-44,842
-45,158
-45,475
-45,794
-46,118
-46,448
-46,787
-47,136
-47,498
-47,875
-48,271
-48,687
-49,125
-49,589
-50,078
-50,594
-51,138
-51,708
-52,303
-52,921
-53,561
-54,219
-54,892
-55,576
-56,268
-56,964
-57,657
-58,344
-59,017
-59,671
-60,299
-60,894
-61,447
-61,952
-62,401
-62,787
-63,1
-63,334
-63,481
-63,534
-63,485
-63,327
-63,055
-62,662
-62,143
-61,496
-60,717
-59,804
-58,757
-57,58
-56,276
-54,852
-53,316
-51,677
-49,947
-48,137
-46,258
-44,325
-42,348
-40,339
-38,309
-36,273
-34,247
-32,249
-30,297
-28,409
-26,602
-24,893
-23,298
-21,83
-20,494
-19,295
-18,24
-17,338
-16,614
-16,091
-15,785
-15,712
-15,883
-16,296
-16,948
-17,821
-18,874
-20,068
-21,36
-22,713
-24,108
-25,519
-26,914
-28,249
-29,451
-30,45
-31,192
-31,613
-31,672
-31,362
-30,688
-29,704
-28,517
-27,198
-25,848
-24,595
-23,515
-22,721
-22,349
-22,501
-23,393
-25,345
-28,537
-32,985
-38,548
-44,807
-51,228
-57,291
-62,242
-65,162
-65,473
-63,196
-58,916
-53,672
-49,191
-47,322
-49,408
-57,146
-70,005
-84,194
-98,042
-110,374
-120,905
-133,381
-142,647
-135,565
-100,047
-22,092
98,111
245,103
403,911
557,418
696,279
820,926
928,235
1014,219
1073,549
1097,937
1085,062
1038,365
961,532
860,753
737,413
586,754
411,909
222,409
38,702
-107,996
-200,443
-237,251
-231,208
-208,851
-187,081
-170,857
-159,582
-146,572
-130,165
-113,359
-99,206
-91,406
-90,792
-96,098
-104,973
-113,708
-119,653
-121,817
-119,912
-114,323
-105,589
-93,861
-79,897
-65,106
-50,885
-38,318
-27,757
-19,56
-12,673
-4,453
4,405
11,71
13,33
1,159
-23,707
-52,593
-76,656
-83,242
-71,547
-52,895
-36,049
-30,686
-38,249
-50,011
-60,667
-66,497
-66,463
-64,125
-61,075
-57,253
-52,839
-47,392
-40,921
-34,076
-27,174
-20,259
-13,425
-6,73
-0,179
6,224
12,488
18,669
24,786
30,803
36,71
42,507
48,186
53,758
59,249
64,697
70,153
75,654
81,216
86,841
92,524
98,259
104,037
109,84
115,639
121,412
127,138
132,802
138,39
143,882
149,254
154,473
159,51
164,336
168,925
173,25
177,286
181,009
184,397
187,434
190,106
192,396
194,29
195,771
196,826
197,441
197,607
197,315
196,558
195,329
193,629
191,458
188,82
185,722
182,172
178,18
173,761
168,93
163,704
158,103
152,149
145,864
139,274
132,405
125,286
117,944
110,41
102,714
94,888
86,963
78,97
70,94
62,903
54,89
46,931
39,054
31,288
23,659
16,194
8,917
1,851
-4,982
-11,564
-17,875
-23,901
-29,627
-35,042
-40,136
-44,9
-49,33
-53,422
-57,174
-60,587
-63,662
-66,404
-68,817
-70,909
-72,687
-74,16
-75,338
-76,232
-76,854
-77,217
-77,333
-77,218
-76,884
-76,348
-75,624
-74,727
-73,672
-72,475
-71,15
-69,714
-68,18
-66,564
-64,88
-63,142
-61,363
-59,558
-57,736
-55,911
-54,092
-52,288
-50,509
-48,761
-47,052
-45,387
-43,772
-42,212
-40,711
-39,273
-37,901
-36,597
-35,364
-34,202
-33,113
-32,098
-31,155
-30,286
-29,488
-28,762
-28,105
-27,517
-26,994
-26,535
-26,136
-25,794
-25,506
-25,268
-25,077
-24,928
-24,817
-24,742
-24,7
-24,687
-24,701
-24,739
-24,799
-24,879
-24,976
-25,089
-25,216
-25,354
-25,503
-25,661
-25,826
-25,998
-26,175
-26,357
-26,542
-26,73
-26,92
-27,111
-27,304
-27,497
-27,69
-27,885
-28,081
-28,279
-28,48
-28,685
-28,895
-29,111
-29,334
-29,564
-29,801
-30,046
-30,299
-30,56
-30,828
-31,104
-31,388
-31,678
-31,975
-32,278
-32,585
-32,897
-33,211
-33,527
-33,844
-34,16
-34,475
-34,786
-35,095
-35,398
-35,695
-35,985
-36,265
-36,535
-36,792
-37,034
-37,259
-37,465
-37,65
-37,813
-37,952
-38,066
-38,155
-38,216
-38,25
-38,255
-38,232
-38,179
-38,098
-37,987
-37,848
-37,682
-37,489
-37,271
-37,029
-36,764
-36,479
-36,174
-35,851
-35,512
-35,159
-34,793
-34,417
-34,032
-33,642
-33,249
-32,856
-32,466
-32,081
-31,704
-31,337
-30,984
-30,645
-30,324
-30,022
-29,74
-29,481
-29,246
-29,036
-28,852
-28,695
-28,566
-28,464
-28,39
-28,343
-28,323
-28,329
-28,36
-28,415
-28,494
-28,595
-28,718
-28,862
-29,024
-29,203
-29,397
-29,605
-29,824
-30,051
-30,285
-30,523
-30,764
-31,006
-31,246
-31,484
-31,718
-31,947
-32,169
-32,383
-32,59
-32,788
-32,976
-33,156
-33,327
-33,49
-33,646
-33,796
-33,941
-34,081
-34,219
-34,355
-34,49
-34,626
-34,763
-34,905
-35,052
-35,206
-35,37
-35,545
-35,734
-35,939
-36,163
-36,406
-36,672
-36,961
-37,275
-37,616
-37,984
-38,381
-38,807
-39,263
-39,748
-40,263
-40,807
-41,379
-41,978
-42,602
-43,25
-43,92
-44,61
-45,319
-46,046
-46,787
-47,543
-48,31
-49,087
-49,872
-50,663
-51,456
-52,25
-53,041
-53,828
-54,607
-55,374
-56,129
-56,868
-57,59
-58,29
-58,969
-59,622
-60,25
-60,85
-61,422
-61,964
-62,478
-62,962
-63,418
-63,846
-64,247
-64,623
-64,974
-65,301
-65,605
-65,887
-66,146
-66,384
-66,601
-66,796
-66,972
-67,129
-67,267
-67,387
-67,49
-67,578
-67,65
-67,708
-67,752
-67,782
-67,798
-67,8
-67,787
-67,76
-67,716
-67,654
-67,573
-67,468
-67,339
-67,18
-66,988
-66,758
-66,485
-66,164
-65,791
-65,362
-64,872
-64,317
-63,695
-63,003
-62,238
-61,399
-60,484
-59,49
-58,417
-57,264
-56,029
-54,713
-53,318
-51,847
-50,304
-48,697
-47,033
-45,319
-43,566
-41,783
-39,98
-38,166
-36,349
-34,536
-32,739
-30,967
-29,236
-27,562
-25,955
-24,429
-22,995
-21,664
-20,447
-19,35
-18,372
-17,515
-16,78
-16,182
-15,744
-15,49
-15,43
-15,575
-15,925
-16,478
-17,23
-18,161
-19,228
-20,386
-21,587
-22,791
-23,973
-25,097
-26,114
-26,954
-27,524
-27,748
-27,568
-26,946
-25,866
-24,322
-22,33
-19,945
-17,263
-14,411
-11,547
-8,82
-6,387
-4,433
-3,111
-2,668
-3,443
-5,611
-9,195
-14,013
-19,566
-25,385
-31,128
-36,222
-39,943
-41,879
-41,849
-40,329
-38,657
-37,914
-38,894
-42,474
-49,213
-59,219
-72,168
-86,409
-98,786
-106,191
-105,297
-92,51
-65,007
-20,316
43,628
127,307
229,419
347,813
476,873
608,032
733,942
847,866
947,774
1035,212
1105,934
1151,204
1157,763
1111,339
1009,3
857,182
665,488
452,333
234,468
32,355
-128,515
-234,745
-283,265
-284,754
-264,109
-237,59
-212,789
-191,057
-165,252
-134,455
-103,384
-76,183
-58,495
-52,958
-57,861
-70,44
-87,183
-104,109
-118,231
-128,131
-132,88
-131,688
-124,712
-112,711
-96,859
-79,231
-61,86
-45,784
-31,712
-20,24
-11,504
-5,565
-2,342
-1,237
-1,557
-2,885
-4,908
-7,397
-10,231
-13,244
-16,285
-19,3
-22,26
-25,086
-27,654
-29,828
-31,48
-32,504
-32,811
-32,342
-31,064
-28,986
-26,152
-22,621
-18,466
-13,755
-8,541
-2,895
3,111
9,398
15,87
22,451
29,094
35,747
42,353
48,875
55,278
61,551
67,704
73,745
79,68
85,516
91,257
96,917
102,514
108,069
113,606
119,14
124,67
130,196
135,713
141,212
146,678
152,089
157,412
162,618
167,681
172,574
177,271
181,742
185,956
189,881
193,485
196,74
199,62
202,1
204,159
205,778
206,941
207,636
207,853
207,584
206,823
205,563
203,8
201,533
198,764
195,499
191,743
187,506
182,802
177,648
172,063
166,067
159,684
152,939
145,86
138,474
130,812
122,905
114,789
106,495
98,06
89,52
80,908
72,261
63,612
54,996
46,445
37,989
29,66
21,485
13,491
5,705
-1,85
-9,152
-16,181
-22,92
-29,354
-35,47
-41,257
-46,707
-51,813
-56,573
-60,984
-65,046
-68,761
-72,134
-75,17
-77,878
-80,265
-82,343
-84,125
-85,622
-86,848
-87,82
-88,551
-89,057
-89,353
-89,457
-89,382
-89,145
-88,76
-88,243
-87,608
-86,868
-86,038
-85,13
-84,154
-83,124
-82,048
-80,935
-79,796
-78,637
-77,467
-76,291
-75,116
-73,947
-72,788
-71,644
-70,518
-69,412
-68,329
-67,271
-66,237
-65,23
-64,249
-63,295
-62,368
-61,468
-60,594
-59,747
-58,927
-58,134
-57,368
-56,63
-55,919
-55,237
-54,585
-53,964
-53,374
-52,818
-52,296
-51,811
-51,364
-50,955
-50,588
-50,262
-49,979
-49,74
-49,546
-49,398
-49,296
-49,241
-49,234
-49,274
-49,363
-49,499
-49,683
-49,915
-50,194
-50,519
-50,889
-51,304
-51,761
-52,258
-52,794
-53,365
-53,969
-54,603
-55,264
-55,946
-56,648
-57,364
-58,09
-58,822
-59,556
-60,287
-61,012
-61,725
-62,423
-63,102
-63,758
-64,388
-64,989
-65,557
-66,091
-66,586
-67,041
-67,454
-67,821
-68,141
-68,411
-68,631
-68,798
-68,912
-68,972
-68,976
-68,925
-68,819
-68,658
-68,443
-68,175
-67,855
-67,484
-67,066
-66,602
-66,095
-65,548
-64,963
-64,345
-63,695
-63,018
-62,317
-61,594
-60,852
-60,095
-59,324
-58,543
-57,755
-56,961
-56,164
-55,367
-54,573
-53,785
-53,004
-52,233
-51,475
-50,732
-50,006
-49,298
-48,611
-47,947
-47,306
-46,69
-46,099
-45,535
-44,998
-44,488
-44,003
-43,544
-43,109
-42,698
-42,309
-41,94
-41,591
-41,261
-40,948
-40,651
-40,369
-40,102
-39,848
-39,606
-39,375
-39,154
-38,942
-38,737
-38,538
-38,345
-38,154
-37,965
-37,777
-37,587
-37,395
-37,199
-36,996
-36,786
-36,568
-36,339
-36,1
-35,849
-35,586
-35,311
-35,024
-34,726
-34,416
-34,095
-33,765
-33,424
-33,074
-32,715
-32,347
-31,971
-31,587
-31,196
-30,798
-30,395
-29,987
-29,575
-29,161
-28,745
-28,33
-27,917
-27,508
-27,105
-26,71
-26,326
-25,955
-25,6
-25,263
-24,948
-24,657
-24,393
-24,158
-23,953
-23,782
-23,646
-23,546
-23,484
-23,462
-23,481
-23,543
-23,648
-23,799
-23,997
-24,243
-24,538
-24,881
-25,274
-25,717
-26,209
-26,75
-27,339
-27,975
-28,657
-29,383
-30,151
-30,958
-31,803
-32,681
-33,588
-34,522
-35,477
-36,449
-37,434
-38,428
-39,426
-40,423
-41,416
-42,4
-43,37
-44,324
-45,255
-46,159
-47,033
-47,872
-48,672
-49,428
-50,137
-50,797
-51,403
-51,954
-52,446
-52,879
-53,25
-53,559
-53,804
-53,985
-54,103
-54,158
-54,153
-54,088
-53,967
-53,794
-53,571
-53,305
-52,998
-52,657
-52,286
-51,89
-51,476
-51,048
-50,613
-50,177
-49,745
-49,324
-48,919
-48,537
-48,183
-47,863
-47,582
-47,345
-47,156
-47,018
-46,936
-46,912
-46,948
-47,046
-47,208
-47,432
-47,719
-48,066
-48,472
-48,934
-49,447
-50,005
-50,603
-51,234
-51,89
-52,562
-53,243
-53,923
-54,592
-55,239
-55,855
-56,43
-56,953
-57,413
-57,801
-58,106
-58,32
-58,434
-58,439
-58,329
-58,097
-57,738
-57,248
-56,622
-55,86
-54,962
-53,929
-52,768
-51,484
-50,084
-48,579
-46,979
-45,297
-43,547
-41,74
-39,889
-38,008
-36,112
-34,219
-32,351
-30,524
-28,759
-27,072
-25,482
-24,006
-22,658
-21,443
-20,367
-19,437
-18,663
-18,07
-17,682
-17,513
-17,577
-17,881
-18,425
-19,205
-20,207
-21,393
-22,728
-24,172
-25,692
-27,27
-28,884
-30,495
-32,055
-33,482
-34,696
-35,637
-36,247
-36,477
-36,317
-35,76
-34,846
-33,672
-32,305
-30,831
-29,357
-27,962
-26,786
-25,998
-25,724
-26,206
-27,758
-30,551
-34,65
-39,865
-45,629
-51,375
-56,583
-60,539
-62,52
-61,991
-58,718
-53,467
-47,86
-43,481
-41,794
-43,896
-50,516
-62,306
-79,127
-98,785
-117,432
-130,642
-133,706
-122,824
-94,644
-45,435
27,357
123,617
240,644
373,689
516,347
662,023
803,212
930,833
1035,731
1109,887
1147,376
1144,443
1101,448
1022,337
912,241
776,992
618,35
435,885
235,873
33,53
-145,724
-275,507
-343,84
-355,989
-331,993
-293,875
-254,201
-216,316
-176,58
-133,686
-91,23
-54,284
-28,851
-17,358
-18,456
-29,46
-46,355
-64,76
-81,262
-93,599
-100,2
-100,552
-94,939
-84,118
-69,552
-53,389
-37,795
-24,202
-13,586
-6,402
-2,6
-2,02
-4,256
-8,508
-13,84
-19,539
-25,052
-30,036
-34,387
-37,984
-40,744
-42,675
-43,799
-44,123
-43,623
-42,227
-39,865
-36,525
-32,231
-27,062
-21,15
-14,648
-7,743
-0,611
6,627
13,885
21,109
28,268
35,332
42,283
49,117
55,817
62,367
68,758
74,978
81,038
86,973
92,825
98,657
104,525
110,463
116,494
122,632
128,874
135,219
141,654
148,157
154,71
161,299
167,912
174,539
181,167
187,775
194,337
200,828
207,217
213,475
219,575
225,488
231,186
236,644
241,836
246,742
251,339
255,602
259,506
263,026
266,135
268,81
271,028
272,768
274,008
274,733
274,928
274,583
273,69
272,244
270,245
267,694
264,597
260,961
256,799
252,123
246,952
241,304
235,201
228,667
221,729
214,414
206,755
198,782
190,531
182,035
173,331
164,456
155,446
146,339
137,173
127,984
118,812
109,692
100,66
91,751
83,001
74,439
66,097
58,001
50,178
42,648
35,433
28,547
22,006
15,821
9,999
4,546
-0,533
-5,239
-9,572
-13,535
-17,135
-20,377
-23,273
-25,831
-28,064
-29,986
-31,612
-32,956
-34,035
-34,866
-35,466
-35,854
-36,047
-36,065
-35,926
-35,648
-35,25
-34,749
-34,164
-33,511
-32,804
-32,059
-31,289
-30,505
-29,718
-28,938
-28,172
-27,427
-26,709
-26,023
-25,373
-24,761
-24,191
-23,664
-23,181
-22,742
-22,347
-21,996
-21,688
-21,422
-21,198
-21,014
-20,87
-20,763
-20,693
-20,658
-20,656
-20,686
-20,745
-20,831
-20,943
-21,078
-21,237
-21,416
-21,616
-21,837
-22,079
-22,341
-22,625
-22,933
-23,264
-23,621
-24,005
-24,417
-24,858
-25,331
-25,835
-26,373
-26,945
-27,551
-28,19
-28,864
-29,57
-30,308
-31,076
-31,871
-32,693
-33,539
-34,407
-35,295
-36,201
-37,124
-38,061
-39,01
-39,969
-40,936
-41,909
-42,885
-43,861
-44,834
-45,803
-46,763
-47,713
-48,649
-49,569
-50,47
-51,349
-52,205
-53,035
-53,838
-54,611
-55,354
-56,067
-56,75
-57,403
-58,027
-58,624
-59,195
-59,743
-60,269
-60,775
-61,263
-61,735
-62,193
-62,639
-63,074
-63,501
-63,921
-64,337
-64,751
-65,164
-65,58
-65,999
-66,425
-66,86
-67,305
-67,763
-68,235
-68,726
-69,236
-69,767
-70,323
-70,904
-71,512
-72,147
-72,811
-73,502
-74,22
-74,964
-75,732
-76,523
-77,336
-78,167
-79,016
-79,88
-80,758
-81,646
-82,543
-83,446
-84,352
-85,258
-86,162
-87,061
-87,952
-88,832
-89,699
-90,549
-91,379
-92,187
-92,969
-93,721
-94,441
-95,123
-95,765
-96,363
-96,914
-97,417
-97,868
-98,267
-98,612
-98,903
-99,141
-99,325
-99,455
-99,533
-99,561
-99,538
-99,468
-99,352
-99,194
-98,996
-98,762
-98,494
-98,198
-97,875
-97,53
-97,166
-96,786
-96,394
-95,995
-95,591
-95,188
-94,789
-94,4
-94,025
-93,668
-93,335
-93,03
-92,755
-92,516
-92,313
-92,15
-92,029
-91,952
-91,92
-91,933
-91,993
-92,1
-92,252
-92,449
-92,69
-92,972
-93,292
-93,648
-94,038
-94,457
-94,904
-95,375
-95,869
-96,383
-96,914
-97,459
-98,017
-98,584
-99,157
-99,735
-100,314
-100,891
-101,466
-102,035
-102,598
-103,153
-103,7
-104,238
-104,767
-105,286
-105,796
-106,298
-106,791
-107,277
-107,759
-108,237
-108,716
-109,197
-109,684
-110,181
-110,688
-111,211
-111,75
-112,307
-112,882
-113,477
-114,092
-114,725
-115,378
-116,048
-116,734
-117,434
-118,144
-118,862
-119,583
-120,301
-121,012
-121,709
-122,386
-123,035
-123,651
-124,225
-124,752
-125,222
-125,63
-125,967
-126,225
-126,397
-126,473
-126,447
-126,31
-126,057
-125,681
-125,178
-124,544
-123,779
-122,885
-121,864
-120,72
-119,456
-118,081
-116,599
-115,019
-113,346
-111,588
-109,752
-107,846
-105,885
-103,882
-101,851
-99,809
-97,771
-95,752
-93,767
-91,829
-89,945
-88,121
-86,367
-84,697
-83,137
-81,71
-80,437
-79,334
-78,413
-77,676
-77,114
-76,706
-76,407
-76,172
-75,955
-75,717
-75,433
-75,07
-74,596
-73,964
-73,112
-71,985
-70,542
-68,751
-66,583
-64,046
-61,196
-58,129
-55,003
-51,967
-49,141
-46,648
-44,63
-43,241
-42,649
-43,022
-44,473
-47,149
-51,278
-56,917
-63,948
-72,017
-80,399
-88,323
-95,182
-100,249
-102,68
-102,106
-98,593
-92,776
-86,293
-80,669
-76,823
-75,776
-78,341
-84,343
-92,722
-101,175
-105,569
-101,785
-86,394
-55,737
-6,88
61,733
150,161
256,185
374,98
500,589
626,352
744,242
846,267
924,913
973,934
989,315
968,742
912,151
822,076
703,393
564,406
414,58
261,101
112,184
-27,091
-152,975
-256,569
-333,386
-376,485
-380,39
-350,712
-292,964
-222,244
-154,739
-98,262
-60,884
-38,921
-26,894
-23,459
-23,842
-29,54
-41,554
-56,629
-73,41
-88,444
-98,419
-102,816
-101,444
-95,095
-85,504
-74,399
-63,496
-54,02
-46,703
-41,839
-39,313
-38,92
-40,247
-42,581
-45,147
-47,366
-48,853
-49,473
-49,27
-48,25
-46,421
-43,851
-40,632
-36,854
-32,593
-27,877
-22,709
-17,119
-11,162
-4,914
1,524
8,066
14,635
21,174
27,649
34,036
40,315
46,48
52,531
58,482
64,35
70,151
75,892
81,582
87,227
92,838
98,433
104,031
109,647
115,304
121,011
126,769
132,577
138,432
144,316
150,208
156,066
161,832
167,465
172,939
178,238
183,365
188,323
193,107
197,724
202,175
206,466
210,62
214,641
218,519
222,268
225,904
229,481
233,103
236,838
240,711
244,741
248,904
253,162
257,49
261,816
266,023
270,004
273,627
276,784
279,419
281,45
282,793
283,337
282,901
281,349
278,607
274,595
269,277
262,646
254,675
245,427
235,064
223,748
211,675
199,043
185,974
172,601
159,067
145,514
132,136
119,102
106,527
94,546
83,281
72,834
63,337
54,843
47,284
40,586
34,631
29,273
24,441
20,068
16,071
12,403
8,996
5,787
2,755
-0,139
-2,956
-5,752
-8,618
-11,61
-14,698
-17,843
-20,972
-23,983
-26,82
-29,439
-31,785
-33,838
-35,59
-37,032
-38,187
-39,077
-39,699
-40,046
-40,095
-39,823
-39,245
-38,386
-37,284
-35,995
-34,562
-33,022
-31,419
-29,782
-28,129
-26,476
-24,824
-23,166
-21,509
-19,862
-18,24
-16,661
-15,137
-13,676
-12,283
-10,959
-9,707
-8,524
-7,408
-6,353
-5,359
-4,425
-3,552
-2,747
-2,008
-1,338
-0,735
-0,197
0,279
0,696
1,06
1,376
1,649
1,884
2,083
2,249
2,385
2,492
2,572
2,627
2,659
2,669
2,66
2,635
2,595
2,543
2,481
2,411
2,335
2,254
2,167
2,076
1,981
1,881
1,777
1,667
1,551
1,428
1,297
1,157
1,005
0,841
0,66
0,46
0,24
-0,002
-0,269
-0,561
-0,88
-1,225
-1,596
-1,994
-2,417
-2,866
-3,341
-3,841
-4,365
-4,913
-5,484
-6,078
-6,693
-7,329
-7,984
-8,657
-9,346
-10,05
-10,768
-11,498
-12,239
-12,987
-13,741
-14,499
-15,259
-16,016
-16,77
-17,518
-18,257
-18,985
-19,701
-20,404
-21,092
-21,765
-22,422
-23,063
-23,687
-24,295
-24,887
-25,463
-26,023
-26,568
-27,1
-27,618
-28,124
-28,62
-29,105
-29,581
-30,049
-30,509
-30,964
-31,414
-31,86
-32,304
-32,746
-33,189
-33,632
-34,079
-34,529
-34,984
-35,445
-35,911
-36,383
-36,862
-37,347
-37,838
-38,335
-38,835
-39,34
-39,848
-40,358
-40,869
-41,38
-41,888
-42,393
-42,893
-43,386
-43,87
-44,344
-44,806
-45,256
-45,69
-46,108
-46,51
-46,892
-47,255
-47,597
-47,918
-48,217
-48,494
-48,748
-48,98
-49,191
-49,38
-49,55
-49,7
-49,833
-49,95
-50,053
-50,144
-50,224
-50,296
-50,361
-50,422
-50,482
-50,541
-50,604
-50,672
-50,748
-50,835
-50,935
-51,05
-51,184
-51,339
-51,517
-51,719
-51,949
-52,206
-52,493
-52,811
-53,159
-53,539
-53,95
-54,391
-54,863
-55,364
-55,892
-56,446
-57,024
-57,625
-58,245
-58,884
-59,538
-60,206
-60,885
-61,573
-62,269
-62,969
-63,672
-64,376
-65,078
-65,775
-66,466
-67,147
-67,818
-68,475
-69,117
-69,743
-70,351
-70,94
-71,511
-72,064
-72,597
-73,112
-73,61
-74,092
-74,559
-75,013
-75,456
-75,89
-76,316
-76,738
-77,156
-77,573
-77,99
-78,407
-78,827
-79,248
-79,671
-80,095
-80,519
-80,943
-81,364
-81,782
-82,195
-82,601
-82,996
-83,377
-83,742
-84,085
-84,401
-84,684
-84,93
-85,13
-85,278
-85,368
-85,392
-85,343
-85,212
-84,992
-84,676
-84,256
-83,724
-83,076
-82,304
-81,404
-80,372
-79,206
-77,903
-76,464
-74,894
-73,197
-71,377
-69,443
-67,403
-65,268
-63,048
-60,754
-58,397
-55,987
-53,538
-51,063
-48,578
-46,101
-43,65
-41,246
-38,906
-36,65
-34,497
-32,462
-30,558
-28,797
-27,19
-25,756
-24,519
-23,503
-22,73
-22,218
-21,978
-22,014
-22,319
-22,874
-23,643
-24,587
-25,664
-26,836
-28,07
-29,333
-30,584
-31,774
-32,837
-33,706
-34,324
-34,638
-34,61
-34,233
-33,534
-32,573
-31,466
-30,324
-29,239
-28,329
-27,718
-27,539
-27,964
-29,151
-31,223
-34,366
-38,823
-44,691
-51,915
-60,187
-68,877
-77,373
-85,159
-91,601
-95,981
-97,846
-97,11
-94,373
-90,948
-88,047
-86,461
-86,818
-89,644
-95,017
-102,286
-109,458
-113,239
-110,13
-97,063
-71,441
-30,764
26,986
102,673
195,121
301,222
416,942
537,602
658,296
771,823
868,718
941,115
984,599
1000,788
996,935
978,613
943,92
883,204
781,91
628,633
428,087
203,157
-13,232
-185,389
-292,104
-334,751
-326,358
-286,568
-232,579
-171,842
-111,855
-63,174
-34,02
-30,388
-49,472
-77,152
-100,765
-112,439
-110,868
-103,633
-96,53
-91,038
-86,954
-81,109
-71,97
-61,249
-50,564
-41,285
-34,347
-29,544
-26,54
-25,399
-25,993
-27,795
-30,395
-33,447
-36,6
-39,753
-42,793
-45,448
-47,51
-48,882
-49,487
-49,31
-48,371
-46,655
-44,182
-41,018
-37,238
-32,927
-28,164
-23,013
-17,533
-11,797
-5,885
0,119
6,137
12,113
18,013
23,819
29,522
35,127
40,65
46,115
51,553
56,991
62,45
67,945
73,488
79,092
84,771
90,538
96,404
102,374
108,452
114,636
120,923
127,305
133,771
140,305
146,891
153,511
160,147
166,783
173,398
179,973
186,486
192,914
199,234
205,418
211,441
217,272
222,884
228,246
233,329
238,103
242,539
246,61
250,286
253,543
256,354
258,698
260,552
261,898
262,719
263
262,729
261,898
260,5
258,532
255,994
252,888
249,219
244,995
240,228
234,93
229,119
222,813
216,035
208,807
201,156
193,111
184,703
175,963
166,926
157,626
148,101
138,386
128,52
118,541
108,486
98,394
88,3
78,241
68,252
58,368
48,62
39,039
29,653
20,489
11,572
2,923
-5,437
-13,49
-21,22
-28,612
-35,657
-42,343
-48,664
-54,615
-60,193
-65,397
-70,228
-74,689
-78,786
-82,524
-85,912
-88,959
-91,675
-94,073
-96,166
-97,967
-99,492
-100,756
-101,776
-102,567
-103,147
-103,531
-103,735
-103,776
-103,668
-103,427
-103,066
-102,6
-102,041
-101,402
-100,696
-99,933
-99,125
-98,282
-97,414
-96,528
-95,632
-94,735
-93,842
-92,96
-92,094
-91,249
-90,429
-89,64
-88,883
-88,163
-87,481
-86,839
-86,239
-85,681
-85,165
-84,693
-84,264
-83,878
-83,535
-83,235
-82,978
-82,763
-82,591
-82,46
-82,371
-82,321
-82,311
-82,339
-82,403
-82,502
-82,636
-82,802
-83
-83,226
-83,48
-83,759
-84,061
-84,383
-84,721
-85,073
-85,436
-85,805
-86,179
-86,553
-86,925
-87,292
-87,649
-87,995
-88,326
-88,637
-88,927
-89,191
-89,427
-89,63
-89,798
-89,928
-90,019
-90,067
-90,071
-90,029
-89,941
-89,805
-89,621
-89,387
-89,103
-88,77
-88,389
-87,959
-87,484
-86,963
-86,401
-85,798
-85,159
-84,485
-83,78
-83,046
-82,286
-81,504
-80,702
-79,884
-79,054
-78,216
-77,372
-76,527
-75,684
-74,848
-74,02
-73,203
-72,401
-71,615
-70,846
-70,097
-69,369
-68,662
-67,977
-67,315
-66,676
-66,06
-65,465
-64,89
-64,335
-63,797
-63,275
-62,766
-62,268
-61,779
-61,297
-60,82
-60,346
-59,874
-59,401
-58,924
-58,443
-57,954
-57,455
-56,944
-56,42
-55,88
-55,323
-54,748
-54,156
-53,544
-52,915
-52,267
-51,602
-50,921
-50,225
-49,515
-48,794
-48,064
-47,328
-46,588
-45,849
-45,115
-44,388
-43,672
-42,971
-42,289
-41,628
-40,991
-40,383
-39,804
-39,259
-38,749
-38,279
-37,849
-37,464
-37,124
-36,832
-36,589
-36,397
-36,257
-36,168
-36,131
-36,146
-36,213
-36,331
-36,498
-36,715
-36,978
-37,286
-37,636
-38,025
-38,45
-38,907
-39,393
-39,904
-40,436
-40,986
-41,55
-42,124
-42,706
-43,292
-43,879
-44,464
-45,044
-45,617
-46,178
-46,727
-47,261
-47,779
-48,278
-48,759
-49,219
-49,659
-50,078
-50,474
-50,848
-51,2
-51,529
-51,837
-52,122
-52,387
-52,633
-52,86
-53,07
-53,265
-53,447
-53,616
-53,775
-53,925
-54,067
-54,203
-54,335
-54,463
-54,589
-54,714
-54,84
-54,966
-55,094
-55,223
-55,354
-55,484
-55,615
-55,744
-55,872
-55,997
-56,118
-56,234
-56,344
-56,448
-56,543
-56,63
-56,706
-56,769
-56,82
-56,856
-56,877
-56,883
-56,872
-56,844
-56,799
-56,738
-56,659
-56,559
-56,436
-56,287
-56,11
-55,91
-55,687
-55,438
-55,181
-54,929
-54,686
-54,471
-54,29
-54,109
-53,921
-53,727
-53,449
-53,046
-52,537
-51,88
-51,068
-50,221
-49,4
-48,606
-48,149
-48,294
-48,748
-49,484
-50,694
-51,675
-53,379
-57,14
-61,043
-64,39
-63,946
-54,107
-36,603
-15,492
1,212
1,673
-17,415
-50,333
-84,133
-103,601
-99,573
-75,411
-44,647
-19,586
-9,242
-13,53
-23,39
-32,787
-37,9
-37,918
-36,426
-34,964
-33,47
-32,097
-30,248
-27,79
-25,265
-22,846
-20,493
-18,275
-16,209
-14,271
-12,455
-10,722
-8,998
-7,272
-5,595
-3,992
-2,476
-1,069
0,218
1,368
2,353
3,163
3,798
4,255
4,531
4,615
4,485
4,125
3,526
2,681
1,589
0,259
-1,293
-3,036
-4,918
-6,893
-8,921
-10,965
-13,006
-15,017
-16,96
-18,791
-20,448
-21,869
-23,013
-23,84
-24,307
-24,414
-24,206
-23,761
-23,209
-22,66
-22,169
-21,815
-21,697
-21,912
-22,571
-23,787
-25,631
-28,258
-31,934
-36,728
-42,491
-48,897
-55,364
-61,28
-66,194
-69,514
-70,402
-68,53
-64,308
-58,454
-52,081
-46,607
-42,984
-41,87
-44,627
-50,133
-53,991
-54,46
-50,462
-42,849
-37,722
-31,571
-12,636
29,503
107,267
218,935
348,065
480,403
601,248
702,935
787,247
853,014
897,846
919,226
912,483
874,839
807,993
715,943
602,414
474,002
334,828
187,235
42,371
-89,737
-198,352
-272,547
-316,475
-336,579
-339,742
-334,716
-320,848
-298,09
-268,922
-234,556
-199,407
-165,867
-133,133
-101,327
-69,828
-38,72
-10,062
15,351
37,082
53,658
63,957
66,906
61,217
47,84
29,719
9,099
-11,825
-30,951
-47,135
-58,715
-63,565
-61,59
-54,403
-43,771
-31,911
-20,378
-9,656
-0,798
4,701
6,42
4,813
0,938
-3,467
-7,371
-10,562
-12,64
-13,118
-11,766
-8,517
-3,772
1,593
7,074
12,537
17,907
23,235
28,494
33,554
38,41
43,188
47,96
52,753
57,544
62,235
66,788
71,232
75,62
80,034
84,522
89,097
93,771
98,548
103,441
108,463
113,615
118,876
124,235
129,683
135,218
140,848
146,567
152,354
158,181
164,012
169,817
175,568
181,238
186,799
192,222
197,48
202,549
207,409
212,036
216,404
220,485
224,251
227,674
230,728
233,39
235,635
237,442
238,792
239,667
240,055
239,941
239,318
238,178
236,517
234,333
231,627
228,404
224,671
220,438
215,719
210,529
204,888
198,818
192,341
185,485
178,278
170,748
162,927
154,846
146,54
138,041
129,385
120,608
111,746
102,836
93,917
85,02
76,178
67,424
58,789
50,304
42,005
33,911
26,039
18,43
11,115
4,124
-2,511
-8,79
-14,728
-20,293
-25,456
-30,266
-34,762
-38,976
-42,958
-46,673
-50,043
-53,122
-56,004
-58,481
-60,311
-61,662
-62,534
-62,897
-63,321
-62,333
-58,502
-53,919
-49,232
-48,266
-55,596
-66,199
-76,733
-82,211
-75,778
-63,532
-50,646
-40,668
-39,451
-42,837
-46,611
-49,844
-49,971
-48,501
-47,368
-46,217
-45,301
-44,5
-43,431
-42,356
-41,484
-40,751
-40,145
-39,693
-39,39
-39,222
-39,181
-39,229
-39,321
-39,474
-39,703
-39,999
-40,361
-40,786
-41,266
-41,803
-42,399
-43,048
-43,743
-44,482
-45,26
-46,073
-46,919
-47,793
-48,693
-49,614
-50,553
-51,505
-52,467
-53,435
-54,406
-55,376
-56,343
-57,304
-58,256
-59,198
-60,127
-61,042
-61,94
-62,82
-63,679
-64,517
-65,33
-66,118
-66,878
-67,609
-68,31
-68,98
-69,616
-70,22
-70,788
-71,321
-71,818
-72,278
-72,7
-73,084
-73,431
-73,74
-74,012
-74,249
-74,452
-74,622
-74,76
-74,868
-74,947
-75
-75,026
-75,029
-75,008
-74,967
-74,906
-74,827
-74,731
-74,621
-74,498
-74,363
-74,217
-74,063
-73,901
-73,732
-73,558
-73,379
-73,198
-73,014
-72,828
-72,643
-72,458
-72,274
-72,092
-71,912
-71,733
-71,555
-71,379
-71,202
-71,026
-70,849
-70,67
-70,491
-70,31
-70,127
-69,943
-69,757
-69,571
-69,383
-69,196
-69,01
-68,826
-68,644
-68,468
-68,297
-68,135
-67,982
-67,84
-67,711
-67,597
-67,499
-67,419
-67,359
-67,319
-67,302
-67,309
-67,341
-67,402
-67,491
-67,612
-67,765
-67,951
-68,172
-68,427
-68,717
-69,041
-69,397
-69,783
-70,198
-70,639
-71,101
-71,581
-72,075
-72,576
-73,079
-73,578
-74,066
-74,536
-74,98
-75,392
-75,764
-76,088
-76,358
-76,566
-76,705
-76,767
-76,747
-76,638
-76,433
-76,127
-75,714
-75,189
-74,547
-73,786
-72,901
-71,893
-70,763
-69,514
-68,152
-66,683
-65,115
-63,458
-61,724
-59,925
-58,072
-56,176
-54,246
-52,296
-50,342
-48,402
-46,492
-44,63
-42,83
-41,107
-39,477
-37,954
-36,549
-35,266
-34,111
-33,092
-32,228
-31,551
-31,088
-30,857
-30,87
-31,131
-31,64
-32,397
-33,386
-34,573
-35,919
-37,385
-38,941
-40,573
-42,258
-43,961
-45,616
-47,128
-48,416
-49,418
-50,1
-50,447
-50,456
-50,132
-49,52
-48,701
-47,785
-46,909
-46,188
-45,735
-45,671
-46,102
-47,238
-49,401
-52,803
-57,492
-63,274
-69,645
-76,119
-82,396
-88,049
-92,508
-95,349
-96,329
-95,959
-95,662
-96,78
-100,117
-106,056
-114,548
-125,379
-138,281
-151,724
-162,591
-167,47
-163,299
-147,933
-120,186
-78,721
-21,993
50,172
136,479
234,308
339,973
450,461
560,952
665,203
758,699
835,548
893,89
933,587
946,393
926,672
868,293
766,226
631,899
477,534
314,86
158,86
14,176
-114,727
-221,011
-302,398
-355,617
-379,073
-375,308
-348,398
-304,246
-250,353
-193,939
-140,705
-94,87
-59,322
-35,851
-24,697
-24,57
-32,575
-44,867
-58,09
-69,493
-77,129
-79,616
-76,231
-67,186
-53,634
-37,445
-20,586
-4,89
8,414
18,552
25,039
27,859
27,303
23,953
18,634
12,226
5,379
-1,492
-8,091
-14,251
-19,817
-24,645
-28,666
-31,843
-34,127
-35,457
-35,767
-35,003
-33,166
-30,318
-26,554
-21,999
-16,79
-11,046
-4,889
1,55
8,167
14,881
21,62
28,331
34,974
41,508
47,91
54,182
60,331
66,381
72,362
78,297
84,222
90,164
96,144
102,18
108,262
114,362
120,465
126,553
132,62
138,675
144,718
150,74
156,743
162,714
168,64
174,521
180,337
186,074
191,744
197,365
202,993
208,703
214,523
220,459
226,496
232,57
238,615
244,549
250,25
255,624
260,592
265,069
269,007
272,357
275,032
276,942
277,963
277,947
276,803
274,476
270,933
266,207
260,354
253,465
245,694
237,176
228,013
218,307
208,121
197,517
186,589
175,434
164,164
152,925
141,826
130,956
120,4
110,194
100,347
90,844
81,614
72,599
63,773
55,119
46,644
38,368
30,29
22,416
14,755
7,295
0,026
-7,053
-13,955
-20,67
-27,177
-33,444
-39,417
-45,046
-50,303
-55,166
-59,625
-63,682
-67,339
-70,602
-73,493
-76,025
-78,209
-80,056
-81,574
-82,775
-83,676
-84,299
-84,668
-84,808
-84,743
-84,494
-84,083
-83,527
-82,842
-82,043
-81,139
-80,141
-79,061
-77,911
-76,705
-75,455
-74,174
-72,872
-71,561
-70,252
-68,952
-67,669
-66,408
-65,173
-63,967
-62,793
-61,653
-60,548
-59,478
-58,443
-57,442
-56,474
-55,537
-54,628
-53,745
-52,885
-52,045
-51,222
-50,413
-49,616
-48,828
-48,048
-47,274
-46,504
-45,739
-44,976
-44,214
-43,454
-42,693
-41,933
-41,171
-40,408
-39,645
-38,883
-38,124
-37,37
-36,623
-35,886
-35,163
-34,457
-33,771
-33,111
-32,478
-31,88
-31,319
-30,8
-30,33
-29,911
-29,548
-29,246
-29,007
-28,836
-28,735
-28,706
-28,751
-28,872
-29,069
-29,345
-29,698
-30,129
-30,637
-31,222
-31,882
-32,615
-33,419
-34,289
-35,224
-36,219
-37,27
-38,373
-39,521
-40,711
-41,936
-43,189
-44,465
-45,756
-47,054
-48,353
-49,645
-50,923
-52,179
-53,407
-54,599
-55,749
-56,851
-57,9
-58,889
-59,815
-60,672
-61,456
-62,162
-62,789
-63,333
-63,791
-64,163
-64,447
-64,642
-64,749
-64,767
-64,699
-64,545
-64,307
-63,988
-63,591
-63,12
-62,578
-61,971
-61,305
-60,584
-59,816
-59,006
-58,161
-57,287
-56,391
-55,479
-54,558
-53,633
-52,711
-51,797
-50,898
-50,018
-49,164
-48,339
-47,549
-46,798
-46,089
-45,425
-44,81
-44,246
-43,735
-43,278
-42,877
-42,533
-42,245
-42,014
-41,838
-41,716
-41,645
-41,624
-41,647
-41,713
-41,816
-41,952
-42,118
-42,308
-42,517
-42,742
-42,976
-43,216
-43,458
-43,695
-43,925
-44,142
-44,343
-44,524
-44,682
-44,814
-44,917
-44,987
-45,025
-45,026
-44,99
-44,916
-44,802
-44,649
-44,457
-44,226
-43,958
-43,656
-43,321
-42,958
-42,569
-42,158
-41,731
-41,291
-40,844
-40,394
-39,946
-39,506
-39,079
-38,668
-38,279
-37,917
-37,586
-37,289
-37,031
-36,815
-36,643
-36,519
-36,445
-36,423
-36,455
-36,542
-36,686
-36,887
-37,145
-37,461
-37,832
-38,259
-38,738
-39,267
-39,842
-40,46
-41,117
-41,807
-42,525
-43,267
-44,026
-44,798
-45,575
-46,353
-47,127
-47,89
-48,637
-49,365
-50,068
-50,743
-51,386
-51,994
-52,564
-53,093
-53,58
-54,021
-54,417
-54,764
-55,063
-55,313
-55,514
-55,666
-55,77
-55,828
-55,84
-55,811
-55,742
-55,637
-55,5
-55,335
-55,147
-54,94
-54,72
-54,491
-54,259
-54,028
-53,804
-53,59
-53,392
-53,212
-53,054
-52,922
-52,817
-52,743
-52,701
-52,692
-52,719
-52,782
-52,882
-53,02
-53,195
-53,409
-53,659
-53,948
-54,273
-54,634
-55,03
-55,46
-55,921
-56,412
-56,93
-57,473
-58,037
-58,619
-59,215
-59,822
-60,436
-61,054
-61,672
-62,286
-62,893
-63,49
-64,072
-64,637
-65,181
-65,7
-66,192
-66,652
-67,078
-67,468
-67,817
-68,124
-68,385
-68,596
-68,755
-68,858
-68,901
-68,88
-68,79
-68,626
-68,385
-68,063
-67,655
-67,158
-66,568
-65,881
-65,095
-64,207
-63,214
-62,114
-60,905
-59,586
-58,159
-56,622
-54,98
-53,235
-51,391
-49,456
-47,437
-45,342
-43,18
-40,961
-38,696
-36,396
-34,073
-31,737
-29,4
-27,074
-24,774
-22,515
-20,314
-18,187
-16,155
-14,237
-12,45
-10,813
-9,34
-8,042
-6,929
-6,013
-5,307
-4,832
-4,605
-4,635
-4,935
-5,514
-6,367
-7,487
-8,845
-10,395
-12,095
-13,901
-15,775
-17,692
-19,618
-21,516
-23,346
-25,052
-26,585
-27,907
-28,967
-29,725
-30,167
-30,3
-30,191
-29,958
-29,717
-29,569
-29,591
-29,859
-30,477
-31,569
-33,275
-35,731
-39,023
-43,281
-48,716
-55,415
-63,29
-72,022
-80,944
-89,342
-96,655
-102,242
-105,386
-105,653
-102,958
-97,851
-91,632
-85,606
-80,726
-77,783
-77,453
-79,922
-84,633
-89,79
-92,346
-88,887
-76,234
-51,555
-12,013
44,66
119,389
211,426
318,417
436,449
560,573
685,651
803,446
905,249
985,895
1039,407
1064,109
1062,029
1029,235
964,503
867,475
732,506
562,252
365,867
155,979
-41,603
-201,013
-310,709
-367,123
-379,598
-364,4
-325,762
-267,422
-197,316
-124,87
-67,489
-36,823
-30,358
-37,19
-44,356
-44,851
-40,296
-37,664
-41,189
-50,108
-61,55
-71,129
-76,053
-76,315
-72,708
-66,441
-59,228
-52,551
-47,126
-43,446
-41,864
-42,289
-44,598
-48,56
-53,442
-58,382
-62,824
-66,417
-69,013
-70,664
-71,363
-71,073
-69,881
-67,929
-65,346
-62,233
-58,633
-54,547
-50,011
-45,108
-39,937
-34,612
-29,233
-23,857
-18,518
-13,239
-8,035
-2,914
2,124
7,097
12,034
16,954
21,864
26,769
31,676
36,598
41,561
46,588
51,699
56,904
62,211
67,621
73,138
78,76
84,483
90,297
96,189
102,152
108,178
114,257
120,382
126,539
132,714
138,891
145,054
151,184
157,261
163,262
169,165
174,946
180,581
186,045
191,315
196,364
201,168
205,702
209,942
213,863
217,443
220,66
223,493
225,922
227,93
229,501
230,621
231,279
231,464
231,169
230,389
229,121
227,363
225,119
222,392
219,189
215,518
211,391
206,822
201,828
196,425
190,636
184,483
177,989
171,182
164,088
156,736
149,157
141,382
133,441
125,367
117,193
108,952
100,675
92,396
84,145
75,953
67,851
59,865
52,025
44,355
36,881
29,626
22,61
15,855
9,378
3,195
-2,679
-8,232
-13,452
-18,332
-22,865
-27,046
-30,872
-34,342
-37,458
-40,223
-42,64
-44,717
-46,462
-47,885
-48,997
-49,811
-50,342
-50,605
-50,615
-50,39
-49,947
-49,305
-48,48
-47,491
-46,357
-45,095
-43,724
-42,261
-40,723
-39,127
-37,491
-35,83
-34,159
-32,492
-30,844
-29,227
-27,653
-26,132
-24,676
-23,292
-21,988
-20,772
-19,647
-18,619
-17,691
-16,864
-16,138
-15,513
-14,988
-14,558
-14,22
-13,971
-13,804
-13,715
-13,699
-13,748
-13,858
-14,021
-14,233
-14,485
-14,772
-15,087
-15,425
-15,78
-16,145
-16,516
-16,888
-17,257
-17,617
-17,967
-18,302
-18,619
-18,918
-19,195
-19,45
-19,682
-19,892
-20,081
-20,251
-20,404
-20,543
-20,671
-20,794
-20,914
-21,037
-21,166
-21,306
-21,46
-21,633
-21,829
-22,051
-22,302
-22,587
-22,906
-23,264
-23,661
-24,099
-24,579
-25,102
-25,667
-26,275
-26,925
-27,615
-28,345
-29,112
-29,915
-30,752
-31,62
-32,515
-33,433
-34,37
-35,322
-36,283
-37,249
-38,213
-39,172
-40,12
-41,052
-41,965
-42,853
-43,713
-44,54
-45,333
-46,087
-46,801
-47,471
-48,097
-48,677
-49,212
-49,7
-50,144
-50,542
-50,897
-51,21
-51,483
-51,717
-51,913
-52,075
-52,205
-52,304
-52,378
-52,428
-52,459
-52,474
-52,478
-52,473
-52,464
-52,454
-52,445
-52,441
-52,444
-52,456
-52,479
-52,516
-52,567
-52,634
-52,717
-52,818
-52,935
-53,068
-53,215
-53,377
-53,55
-53,734
-53,926
-54,125
-54,33
-54,538
-54,748
-54,958
-55,166
-55,37
-55,569
-55,759
-55,939
-56,107
-56,261
-56,399
-56,521
-56,625
-56,711
-56,779
-56,828
-56,858
-56,871
-56,865
-56,842
-56,802
-56,747
-56,679
-56,599
-56,511
-56,415
-56,316
-56,214
-56,114
-56,016
-55,924
-55,838
-55,76
-55,691
-55,634
-55,589
-55,558
-55,541
-55,54
-55,555
-55,586
-55,635
-55,699
-55,779
-55,874
-55,983
-56,104
-56,236
-56,378
-56,529
-56,687
-56,85
-57,017
-57,187
-57,356
-57,522
-57,684
-57,839
-57,984
-58,118
-58,239
-58,346
-58,438
-58,514
-58,575
-58,62
-58,649
-58,663
-58,661
-58,647
-58,619
-58,581
-58,534
-58,481
-58,423
-58,365
-58,309
-58,257
-58,212
-58,177
-58,154
-58,146
-58,155
-58,181
-58,228
-58,298
-58,391
-58,51
-58,655
-58,828
-59,028
-59,256
-59,511
-59,79
-60,093
-60,416
-60,756
-61,109
-61,472
-61,841
-62,209
-62,572
-62,923
-63,257
-63,567
-63,844
-64,081
-64,271
-64,406
-64,478
-64,48
-64,406
-64,248
-63,999
-63,655
-63,211
-62,661
-62,001
-61,227
-60,337
-59,328
-58,198
-56,948
-55,579
-54,093
-52,497
-50,799
-49,006
-47,129
-45,178
-43,164
-41,098
-38,994
-36,858
-34,7
-32,531
-30,361
-28,209
-26,09
-24,02
-22,013
-20,084
-18,248
-16,52
-14,913
-13,429
-12,069
-10,843
-9,765
-8,864
-8,166
-7,683
-7,419
-7,379
-7,552
-7,929
-8,483
-9,159
-9,904
-10,669
-11,413
-12,119
-12,765
-13,305
-13,681
-13,816
-13,644
-13,144
-12,306
-11,115
-9,604
-7,827
-5,884
-3,94
-2,137
-0,601
0,532
1,146
1,104
0,235
-1,595
-4,574
-8,953
-14,772
-21,909
-30,072
-38,674
-47,173
-55,155
-62,011
-66,987
-69,669
-70,064
-68,807
-67,194
-66,141
-65,931
-66,757
-68,948
-72,656
-77,287
-80,973
-80,64
-73,557
-58,064
-32,895
3,564
52,976
116,091
192,348
279,054
372,74
470,87
568,56
659,566
739,778
803,366
848,22
874,699
874,901
844,464
780,609
680,344
553,755
407,101
243,274
72,365
-97,158
-247,418
-356,832
-416,907
-429,59
-409,489
-374,611
-334,865
-293,365
-247,733
-196,954
-144,274
-94,761
-54,237
-25,98
-10,082
-5,108
-8,189
-16,18
-26,488
-36,594
-44,578
-49,109
-49,487
-45,929
-39,389
-31,246
-22,965
-15,968
-11,17
-9,089
-9,928
-13,401
-18,965
-25,917
-33,439
-40,76
-47,404
-53,089
-57,626
-60,945
-62,987
-63,74
-63,298
-61,783
-59,283
-55,872
-51,638
-46,71
-41,284
-35,553
-29,67
-23,741
-17,829
-11,989
-6,278
-0,748
4,571
9,671
14,559
19,234
23,69
27,933
31,991
35,922
39,804
43,696
47,639
51,662
55,781
60,008
64,354
68,812
73,37
78,013
82,73
87,515
92,369
97,284
102,251
107,247
112,245
117,219
122,149
127,01
131,789
136,466
141,005
145,398
149,659
153,782
157,781
161,642
165,28
168,658
171,791
174,601
176,985
178,875
180,146
180,754
180,872
180,559
179,7
178,498
177,393
176,372
175,348
174,474
172,965
171,661
173,753
178,356
182,748
182,734
168,121
138,573
104,797
76,19
69,08
88,159
116,713
142,446
150,389
132,4
103,474
74,088
51,672
43,15
40,667
38,414
35,523
29,25
21,723
15,06
8,431
1,989
-4,297
-10,828
-17,34
-23,583
-29,591
-35,32
-40,652
-45,559
-50,089
-54,252
-58,079
-61,615
-64,835
-67,726
-70,308
-72,587
-74,563
-76,245
-77,637
-78,741
-79,574
-80,15
-80,481
-80,583
-80,469
-80,152
-79,649
-78,973
-78,14
-77,166
-76,064
-74,85
-73,539
-72,146
-70,683
-69,166
-67,606
-66,017
-64,41
-62,796
-61,185
-59,587
-58,012
-56,468
-54,964
-53,507
-52,106
-50,767
-49,495
-48,297
-47,177
-46,139
-45,185
-44,317
-43,537
-42,846
-42,243
-41,73
-41,305
-40,967
-40,714
-40,544
-40,454
-40,442
-40,503
-40,633
-40,828
-41,083
-41,396
-41,76
-42,172
-42,628
-43,122
-43,651
-44,208
-44,789
-45,389
-46,001
-46,62
-47,24
-47,857
-48,464
-49,058
-49,634
-50,188
-50,715
-51,213
-51,678
-52,107
-52,498
-52,85
-53,159
-53,427
-53,651
-53,834
-53,975
-54,076
-54,14
-54,167
-54,16
-54,122
-54,055
-53,962
-53,845
-53,708
-53,553
-53,385
-53,208
-53,025
-52,842
-52,661
-52,487
-52,324
-52,175
-52,045
-51,937
-51,852
-51,796
-51,768
-51,774
-51,813
-51,888
-51,999
-52,148
-52,332
-52,552
-52,806
-53,092
-53,405
-53,744
-54,105
-54,483
-54,875
-55,275
-55,681
-56,086
-56,487
-56,877
-57,251
-57,604
-57,93
-58,225
-58,483
-58,7
-58,87
-58,991
-59,057
-59,065
-59,013
-58,896
-58,713
-58,46
-58,136
-57,74
-57,27
-56,727
-56,112
-55,425
-54,668
-53,846
-52,96
-52,014
-51,014
-49,963
-48,868
-47,733
-46,565
-45,369
-44,154
-42,924
-41,688
-40,452
-39,223
-38,008
-36,812
-35,641
-34,501
-33,398
-32,335
-31,319
-30,353
-29,441
-28,587
-27,795
-27,069
-26,41
-25,821
-25,304
-24,86
-24,489
-24,192
-23,97
-23,819
-23,741
-23,732
-23,791
-23,915
-24,101
-24,344
-24,641
-24,987
-25,378
-25,808
-26,273
-26,768
-27,288
-27,83
-28,388
-28,96
-29,541
-30,128
-30,717
-31,305
-31,888
-32,463
-33,025
-33,571
-34,098
-34,602
-35,08
-35,529
-35,944
-36,324
-36,663
-36,959
-37,209
-37,409
-37,557
-37,648
-37,682
-37,657
-37,571
-37,423
-37,211
-36,936
-36,596
-36,191
-35,722
-35,188
-34,587
-33,922
-33,192
-32,398
-31,541
-30,624
-29,65
-28,626
-27,559
-26,454
-25,322
-24,171
-23,009
-21,847
-20,695
-19,557
-18,443
-17,36
-16,319
-15,334
-14,416
-13,576
-12,822
-12,163
-11,606
-11,16
-10,828
-10,607
-10,493
-10,49
-10,608
-10,872
-11,301
-11,901
-12,675
-13,622
-14,734
-16,01
-17,429
-18,95
-20,535
-22,144
-23,753
-25,353
-26,926
-28,428
-29,796
-30,945
-31,805
-32,341
-32,53
-32,354
-31,811
-30,912
-29,712
-28,299
-26,781
-25,26
-23,828
-22,584
-21,647
-21,137
-21,26
-22,304
-24,428
-27,639
-31,725
-36,216
-40,666
-44,733
-47,95
-49,722
-49,63
-47,538
-44,068
-40,601
-38,401
-38,435
-41,277
-47,206
-56,471
-68,922
-82,933
-95,522
-103,296
-102,689
-91,241
-67,159
-27,712
29,18
103,619
194,57
297,249
405,324
516,228
625,321
729,502
826,238
903,567
952,197
963,019
927,28
851,454
743,411
612,615
472,577
327,081
181,054
42,706
-82,483
-185,729
-260,487
-306,111
-323,244
-314,434
-284,768
-240,184
-187,515
-134,274
-86,398
-47,181
-18,676
-2,362
1,927
-4,106
-17,568
-34,251
-50,383
-64,066
-74,14
-79,477
-79,715
-75,159
-66,732
-56,489
-46,564
-37,981
-31,277
-26,858
-24,734
-24,857
-27,037
-30,507
-34,334
-37,96
-41,02
-43,345
-44,973
-45,862
-45,95
-45,3
-44,026
-42,224
-39,983
-37,331
-34,248
-30,755
-26,898
-22,749
-18,405
-13,953
-9,466
-4,996
-0,573
3,778
8,043
12,216
16,301
20,323
24,312
28,286
32,261
36,249
40,256
44,304
48,419
52,624
56,949
61,408
66,007
70,747
75,625
80,633
85,759
90,975
96,233
101,491
106,707
111,856
116,939
121,948
126,87
131,696
136,408
141,01
145,541
150,028
154,489
158,943
163,4
167,9
172,531
177,367
182,464
187,841
193,466
199,317
205,389
211,664
218,106
224,621
231,043
237,225
243,059
248,426
253,223
257,295
260,414
262,387
263,077
262,392
260,299
256,749
251,655
244,956
236,648
226,819
215,655
203,328
189,966
175,724
160,767
145,329
129,731
114,238
99,04
84,289
70,105
56,634
44,076
32,616
22,356
13,322
5,462
-1,275
-6,903
-11,476
-15,088
-17,898
-20,132
-21,959
-23,471
-24,742
-25,834
-26,838
-27,888
-29,109
-30,565
-32,281
-34,254
-36,479
-38,973
-41,718
-44,656
-47,684
-50,671
-53,529
-56,222
-58,73
-61,033
-63,101
-64,89
-66,366
-67,529
-68,384
-68,936
-69,19
-69,143
-68,812
-68,24
-67,486
-66,62
-65,689
-64,719
-63,732
-62,747
-61,781
-60,852
-59,966
-59,12
-58,313
-57,55
-56,841
-56,193
-55,609
-55,085
-54,609
-54,175
-53,773
-53,402
-53,056
-52,731
-52,426
-52,139
-51,874
-51,635
-51,423
-51,238
-51,077
-50,935
-50,811
-50,7
-50,599
-50,503
-50,409
-50,315
-50,22
-50,121
-50,018
-49,91
-49,798
-49,679
-49,555
-49,426
-49,292
-49,154
-49,013
-48,872
-48,732
-48,594
-48,462
-48,336
-48,218
-48,109
-48,011
-47,923
-47,846
-47,781
-47,727
-47,686
-47,657
-47,642
-47,641
-47,655
-47,685
-47,732
-47,796
-47,879
-47,978
-48,095
-48,229
-48,379
-48,543
-48,721
-48,911
-49,112
-49,321
-49,537
-49,756
-49,977
-50,197
-50,413
-50,623
-50,825
-51,018
-51,199
-51,368
-51,523
-51,665
-51,792
-51,904
-52,001
-52,082
-52,149
-52,2
-52,236
-52,258
-52,266
-52,261
-52,244
-52,216
-52,178
-52,132
-52,078
-52,019
-51,955
-51,888
-51,821
-51,754
-51,69
-51,632
-51,58
-51,537
-51,505
-51,485
-51,478
-51,484
-51,506
-51,542
-51,593
-51,659
-51,74
-51,835
-51,943
-52,065
-52,199
-52,344
-52,498
-52,661
-52,83
-53,004
-53,181
-53,358
-53,535
-53,707
-53,874
-54,034
-54,183
-54,321
-54,444
-54,552
-54,641
-54,711
-54,759
-54,785
-54,789
-54,77
-54,729
-54,666
-54,583
-54,481
-54,362
-54,228
-54,082
-53,924
-53,758
-53,586
-53,412
-53,237
-53,066
-52,901
-52,746
-52,604
-52,479
-52,374
-52,292
-52,236
-52,211
-52,22
-52,265
-52,351
-52,48
-52,656
-52,88
-53,155
-53,482
-53,863
-54,296
-54,782
-55,32
-55,907
-56,542
-57,222
-57,944
-58,704
-59,5
-60,326
-61,18
-62,057
-62,953
-63,863
-64,783
-65,708
-66,635
-67,558
-68,474
-69,379
-70,268
-71,138
-71,983
-72,8
-73,586
-74,335
-75,044
-75,709
-76,327
-76,896
-77,412
-77,876
-78,285
-78,64
-78,94
-79,187
-79,38
-79,523
-79,617
-79,663
-79,665
-79,625
-79,546
-79,431
-79,282
-79,102
-78,895
-78,662
-78,407
-78,13
-77,835
-77,523
-77,197
-76,858
-76,508
-76,149
-75,784
-75,415
-75,043
-74,67
-74,298
-73,928
-73,56
-73,197
-72,837
-72,481
-72,129
-71,779
-71,431
-71,085
-70,738
-70,391
-70,04
-69,686
-69,326
-68,959
-68,584
-68,201
-67,807
-67,403
-66,989
-66,564
-66,128
-65,681
-65,224
-64,757
-64,28
-63,793
-63,297
-62,792
-62,278
-61,756
-61,226
-60,69
-60,147
-59,6
-59,05
-58,498
-57,946
-57,397
-56,852
-56,312
-55,781
-55,261
-54,754
-54,262
-53,787
-53,332
-52,899
-52,489
-52,104
-51,746
-51,417
-51,116
-50,845
-50,605
-50,396
-50,219
-50,073
-49,96
-49,879
-49,831
-49,816
-49,832
-49,88
-49,957
-50,063
-50,195
-50,35
-50,525
-50,717
-50,921
-51,133
-51,349
-51,563
-51,771
-51,966
-52,143
-52,296
-52,419
-52,505
-52,548
-52,541
-52,479
-52,355
-52,164
-51,9
-51,558
-51,133
-50,619
-50,014
-49,313
-48,512
-47,608
-46,599
-45,483
-44,258
-42,925
-41,486
-39,946
-38,311
-36,591
-34,795
-32,934
-31,022
-29,069
-27,09
-25,096
-23,096
-21,101
-19,12
-17,168
-15,261
-13,415
-11,643
-9,958
-8,372
-6,898
-5,548
-4,329
-3,24
-2,284
-1,468
-0,811
-0,343
-0,094
-0,076
-0,3
-0,767
-1,469
-2,398
-3,526
-4,798
-6,161
-7,558
-8,946
-10,303
-11,593
-12,758
-13,721
-14,383
-14,658
-14,498
-13,873
-12,776
-11,219
-9,243
-6,93
-4,408
-1,841
0,606
2,766
4,489
5,614
5,974
5,328
3,33
-0,203
-5,212
-11,406
-18,206
-25,057
-31,583
-37,267
-41,318
-43,256
-43,179
-41,848
-40,854
-41,625
-44,724
-50,451
-59,189
-70,737
-83,877
-96,19
-103,737
-102,433
-89,565
-63,094
-20,908
38,366
114,757
206,814
310,851
421,918
535,852
648,36
753,831
846,421
920,703
971,74
996,524
993,62
961,339
899,287
809,753
696,85
566,29
425,009
279,538
136,472
3,567
-112,232
-206,006
-274,917
-318,573
-338,009
-334,597
-311,347
-273,424
-226,567
-176,319
-127,131
-81,798
-42,951
-13,562
5,009
13,294
12,874
6,155
-4,761
-18,537
-33,209
-45,966
-54,992
-59,573
-59,728
-56,379
-50,415
-42,358
-33,291
-24,839
-18,012
-13,3
-10,812
-10,053
-10,59
-12,158
-14,203
-16,065
-17,376
-17,929
-17,71
-16,926
-15,65
-13,895
-11,765
-9,333
-6,676
-3,858
-0,879
2,274
5,562
8,936
12,326
15,674
18,988
22,288
25,602
28,977
32,408
35,895
39,464
43,121
46,879
50,757
54,75
58,859
63,113
67,533
72,145
76,977
82,024
87,28
92,736
98,373
104,192
110,196
116,371
122,708
129,195
135,818
142,568
149,435
156,393
163,413
170,466
177,518
184,542
191,51
198,389
205,145
211,743
218,146
224,318
230,226
235,832
241,103
246,003
250,5
254,564
258,172
261,297
263,918
266,015
267,57
268,57
269,004
268,863
268,143
266,84
264,955
262,493
259,46
255,867
251,726
247,052
241,863
236,179
230,024
223,424
216,408
209,005
201,249
193,175
184,819
176,218
167,41
158,435
149,33
140,136
130,891
121,632
112,397
103,222
94,141
85,189
76,396
67,794
59,408
51,267
43,394
35,81
28,535
21,587
14,982
8,732
2,85
-2,655
-7,776
-12,507
-16,845
-20,79
-24,341
-27,503
-30,283
-32,687
-34,725
-36,41
-37,753
-38,77
-39,476
-39,886
-40,019
-39,892
-39,524
-38,934
-38,141
-37,165
-36,024
-34,739
-33,328
-31,809
-30,201
-28,52
-26,785
-25,01
-23,212
-21,406
-19,608
-17,831
-16,09
-14,397
-12,765
-11,204
-9,725
-8,336
-7,045
-5,857
-4,778
-3,812
-2,961
-2,228
-1,614
-1,119
-0,742
-0,483
-0,338
-0,305
-0,38
-0,558
-0,834
-1,203
-1,66
-2,199
-2,814
-3,499
-4,248
-5,055
-5,914
-6,818
-7,759
-8,73
-9,724
-10,733
-11,75
-12,768
-13,78
-14,78
-15,763
-16,722
-17,653
-18,551
-19,412
-20,232
-21,007
-21,736
-22,414
-23,04
-23,613
-24,132
-24,598
-25,009
-25,367
-25,673
-25,928
-26,132
-26,288
-26,396
-26,459
-26,477
-26,455
-26,393
-26,296
-26,167
-26,009
-25,827
-25,624
-25,403
-25,17
-24,927
-24,678
-24,426
-24,177
-23,932
-23,696
-23,472
-23,263
-23,074
-22,906
-22,763
-22,646
-22,559
-22,502
-22,478
-22,488
-22,533
-22,615
-22,735
-22,895
-23,094
-23,336
-23,619
-23,945
-24,314
-24,725
-25,178
-25,673
-26,209
-26,784
-27,398
-28,05
-28,737
-29,459
-30,214
-30,999
-31,814
-32,655
-33,52
-34,407
-35,312
-36,234
-37,169
-38,114
-39,068
-40,028
-40,99
-41,952
-42,91
-43,862
-44,804
-45,733
-46,645
-47,538
-48,407
-49,249
-50,061
-50,841
-51,585
-52,291
-52,956
-53,578
-54,155
-54,684
-55,164
-55,593
-55,97
-56,293
-56,561
-56,775
-56,933
-57,035
-57,083
-57,075
-57,012
-56,896
-56,726
-56,504
-56,23
-55,907
-55,536
-55,118
-54,657
-54,153
-53,611
-53,032
-52,419
-51,777
-51,106
-50,412
-49,695
-48,961
-48,21
-47,447
-46,674
-45,894
-45,109
-44,322
-43,535
-42,75
-41,97
-41,195
-40,428
-39,669
-38,919
-38,18
-37,451
-36,735
-36,031
-35,34
-34,663
-34,001
-33,353
-32,721
-32,104
-31,503
-30,916
-30,344
-29,786
-29,241
-28,71
-28,191
-27,684
-27,188
-26,703
-26,229
-25,765
-25,31
-24,864
-24,428
-24
-23,58
-23,17
-22,768
-22,377
-21,997
-21,628
-21,273
-20,931
-20,603
-20,291
-19,994
-19,713
-19,449
-19,2
-18,967
-18,749
-18,548
-18,362
-18,192
-18,038
-17,898
-17,774
-17,665
-17,57
-17,488
-17,42
-17,365
-17,322
-17,292
-17,274
-17,267
-17,273
-17,289
-17,317
-17,355
-17,402
-17,458
-17,522
-17,592
-17,669
-17,751
-17,838
-17,93
-18,029
-18,135
-18,249
-18,372
-18,507
-18,655
-18,817
-18,996
-19,195
-19,414
-19,657
-19,926
-20,223
-20,551
-20,913
-21,31
-21,744
-22,215
-22,726
-23,275
-23,862
-24,487
-25,149
-25,846
-26,577
-27,34
-28,134
-28,956
-29,805
-30,677
-31,569
-32,477
-33,396
-34,321
-35,246
-36,166
-37,073
-37,961
-38,824
-39,654
-40,445
-41,188
-41,877
-42,504
-43,061
-43,541
-43,938
-44,245
-44,459
-44,575
-44,593
-44,511
-44,33
-44,054
-43,688
-43,237
-42,71
-42,115
-41,461
-40,76
-40,021
-39,257
-38,478
-37,694
-36,917
-36,16
-35,436
-34,76
-34,146
-33,611
-33,173
-32,847
-32,648
-32,589
-32,676
-32,918
-33,324
-33,905
-34,68
-35,665
-36,87
-38,305
-39,978
-41,883
-44,008
-46,322
-48,772
-51,309
-53,885
-56,459
-59,006
-61,493
-63,884
-66,14
-68,208
-70,039
-71,6
-72,855
-73,771
-74,339
-74,583
-74,597
-74,522
-74,499
-74,644
-75,025
-75,703
-76,782
-78,378
-80,618
-83,625
-87,456
-92,203
-98,073
-105,11
-113,143
-121,749
-130,064
-137,189
-142,499
-145,29
-144,796
-140,789
-133,493
-123,789
-113,673
-105,04
-99,118
-97,167
-100,08
-107,565
-118,4
-130,002
-137,839
-137,319
-124,479
-95,247
-46,415
23,464
114,132
223,046
344,74
472,397
598,496
714,445
811,512
881,903
919,325
919,096
881,239
809,897
709,728
588,13
448,9
290,264
117,67
-60,235
-227,802
-356,528
-430,165
-444,206
-403,331
-335,497
-266,796
-213,2
-188,483
-186,207
-191,656
-197,181
-194,003
-182,64
-171,649
-163,632
-159,617
-158,364
-155,253
-148,962
-140,312
-130,093
-119,745
-110,223
-101,923
-95,475
-91,284
-89,282
-89,17
-90,534
-93,015
-96,345
-100,259
-104,431
-108,525
-112,273
-115,489
-118,076
-119,965
-121,096
-121,434
-120,965
-119,721
-117,777
-115,214
-112,115
-108,559
-104,613
-100,348
-95,845
-91,191
-86,471
-81,76
-77,107
-72,535
-68,062
-63,688
-59,412
-55,214
-51,063
-46,923
-42,763
-38,561
-34,3
-29,964
-25,534
-20,992
-16,321
-11,51
-6,549
-1,435
3,833
9,256
14,828
20,541
26,382
32,338
38,396
44,544
50,768
57,053
63,384
69,743
76,112
82,47
88,796
95,066
101,254
107,334
113,281
119,068
124,667
130,052
135,197
140,076
144,664
148,937
152,873
156,449
159,645
162,444
164,827
166,78
168,29
169,345
169,935
170,054
169,696
168,859
167,54
165,741
163,465
160,718
157,508
153,843
149,736
145,2
140,252
134,909
129,192
123,123
116,725
110,023
103,044
95,814
88,362
80,717
72,909
64,966
56,918
48,795
40,626
32,439
24,262
16,122
8,046
0,059
-7,814
-15,551
-23,128
-30,525
-37,721
-44,698
-51,437
-57,924
-64,142
-70,078
-75,721
-81,059
-86,085
-90,789
-95,168
-99,216
-102,93
-106,311
-109,358
-112,075
-114,465
-116,533
-118,286
-119,733
-120,881
-121,741
-122,325
-122,642
-122,705
-122,528
-122,122
-121,502
-120,682
-119,676
-118,499
-117,165
-115,691
-114,091
-112,38
-110,574
-108,687
-106,736
-104,734
-102,697
-100,639
-98,573
-96,513
-94,472
-92,462
-90,493
-88,577
-86,723
-84,939
-83,233
-81,612
-80,079
-78,642
-77,302
-76,063
-74,928
-73,897
-72,971
-72,15
-71,433
-70,819
-70,306
-69,89
-69,568
-69,335
-69,189
-69,123
-69,132
-69,21
-69,352
-69,55
-69,799
-70,091
-70,419
-70,775
-71,154
-71,547
-71,948
-72,349
-72,744
-73,127
-73,492
-73,833
-74,144
-74,423
-74,664
-74,863
-75,017
-75,124
-75,182
-75,188
-75,141
-75,04
-74,885
-74,677
-74,416
-74,104
-73,743
-73,334
-72,88
-72,384
-71,85
-71,279
-70,677
-70,045
-69,389
-68,711
-68,017
-67,31
-66,595
-65,876
-65,157
-64,444
-63,739
-63,048
-62,373
-61,718
-61,088
-60,484
-59,909
-59,367
-58,859
-58,387
-57,952
-57,556
-57,198
-56,878
-56,595
-56,347
-56,133
-55,95
-55,796
-55,667
-55,561
-55,474
-55,403
-55,345
-55,297
-55,254
-55,214
-55,171
-55,123
-55,065
-54,994
-54,906
-54,796
-54,663
-54,503
-54,313
-54,09
-53,832
-53,535
-53,198
-52,82
-52,397
-51,93
-51,417
-50,859
-50,258
-49,614
-48,929
-48,207
-47,45
-46,662
-45,846
-45,005
-44,143
-43,265
-42,373
-41,472
-40,567
-39,66
-38,756
-37,86
-36,974
-36,103
-35,25
-34,418
-33,609
-32,826
-32,071
-31,346
-30,653
-29,994
-29,37
-28,783
-28,232
-27,719
-27,242
-26,801
-26,393
-26,017
-25,67
-25,348
-25,049
-24,769
-24,505
-24,252
-24,007
-23,767
-23,528
-23,285
-23,036
-22,776
-22,502
-22,21
-21,898
-21,562
-21,2
-20,81
-20,39
-19,939
-19,455
-18,937
-18,385
-17,798
-17,175
-16,517
-15,824
-15,097
-14,338
-13,548
-12,731
-11,889
-11,025
-10,144
-9,248
-8,341
-7,427
-6,509
-5,59
-4,673
-3,762
-2,859
-1,968
-1,091
-0,232
0,608
1,426
2,22
2,987
3,728
4,44
5,123
5,774
6,395
6,983
7,54
8,064
8,556
9,018
9,449
9,852
10,229
10,582
10,915
11,231
11,534
11,826
12,112
12,395
12,678
12,964
13,257
13,558
13,872
14,201
14,547
14,913
15,302
15,716
16,157
16,628
17,131
17,667
18,239
18,848
19,495
20,182
20,91
21,679
22,491
23,346
24,243
25,183
26,164
27,186
28,247
29,344
30,475
31,637
32,826
34,04
35,274
36,526
37,793
39,072
40,36
41,654
42,95
44,247
45,54
46,826
48,101
49,362
50,607
51,833
53,038
54,22
55,378
56,512
57,624
58,713
59,78
60,825
61,849
62,85
63,829
64,785
65,715
66,622
67,508
68,378
69,24
70,102
70,972
71,86
72,776
73,727
74,722
75,764
76,854
77,998
79,201
80,475
81,837
83,296
84,855
86,519
88,282
90,132
92,05
94
95,943
97,856
99,725
101,549
103,346
105,129
106,913
108,72
110,551
112,41
114,312
116,253
118,24
120,305
122,488
124,862
127,518
130,499
133,828
137,5
141,465
145,663
150,019
154,418
158,776
163,02
167,074
170,896
174,441
177,625
180,36
182,525
183,969
184,595
184,342
183,166
181,09
178,162
174,458
170,12
165,264
