Name,Alessandro
Date of Birth,"25 Sep 2006"
Recorded Date,2024-08-19 22:48:31 +0200
Classification,Sinus Rhythm
Symptoms,
Software Version,1.90
Device,"Watch7,2"
Sample Rate,512 hertz


Lead,Lead I
Unit,µV

-160,933
-201,998
-206,2
-183,554
-154,223
-131,925
-120,459
-117,53
-114,219
-106,076
-94,429
-81,656
-71,482
-65,262
-61,645
-59,248
-56,829
-53,281
-47,876
-40,244
-30,188
-17,829
-3,577
12,212
29,214
46,915
64,753
82,304
99,232
115,388
130,761
145,282
158,882
171,525
183,183
193,837
203,428
211,82
218,852
224,366
228,274
230,578
231,322
230,584
228,444
224,944
220,13
214,061
206,774
198,301
188,665
177,858
165,942
153,058
139,385
125,144
110,515
95,611
80,527
65,336
50,111
34,955
19,958
5,195
-9,225
-23,172
-36,482
-48,942
-60,413
-70,838
-80,204
-88,556
-95,919
-102,283
-107,652
-112,034
-115,446
-117,93
-119,512
-120,206
-120,078
-119,227
-117,801
-116,006
-113,994
-111,859
-109,672
-107,462
-105,265
-103,132
-101,088
-99,138
-97,291
-95,546
-93,919
-92,439
-91,099
-89,868
-88,684
-87,454
-86,112
-84,628
-82,98
-81,163
-79,178
-77,025
-74,722
-72,31
-69,818
-67,275
-64,699
-62,098
-59,494
-56,921
-54,416
-52,028
-49,792
-47,73
-45,862
-44,204
-42,762
-41,543
-40,542
-39,744
-39,136
-38,713
-38,466
-38,392
-38,483
-38,725
-39,109
-39,626
-40,263
-41,012
-41,862
-42,796
-43,807
-44,887
-46,019
-47,188
-48,382
-49,579
-50,77
-51,969
-53,157
-54,317
-55,475
-56,635
-57,789
-58,966
-60,145
-61,243
-62,253
-63,196
-63,916
-64,285
-64,427
-64,303
-63,835
-63,445
-62,434
-59,903
-57,016
-54,146
-53,121
-57,296
-64,636
-72,137
-76,656
-72,283
-59,949
-45,275
-32,066
-26,307
-29,398
-35,678
-41,826
-44,49
-41,345
-35,739
-29,773
-24,102
-20,063
-16,634
-12,922
-9,251
-5,46
-1,621
2,032
5,629
9,278
12,937
16,607
20,315
24,037
27,746
31,431
35,061
38,602
42,058
45,425
48,687
51,84
54,876
57,786
60,565
63,212
65,717
68,074
70,281
72,331
74,223
75,956
77,526
78,935
80,18
81,265
82,188
82,954
83,564
84,022
84,332
84,498
84,527
84,422
84,191
83,84
83,375
82,803
82,132
81,368
80,519
79,592
78,595
77,534
76,417
75,25
74,041
72,797
71,525
70,229
68,917
67,594
66,265
64,935
63,609
62,29
60,983
59,691
58,415
57,16
55,927
54,716
53,529
52,367
51,23
50,117
49,027
47,959
46,914
45,888
44,88
43,89
42,915
41,953
41,004
40,064
39,133
38,208
37,287
36,37
35,455
34,541
33,626
32,71
31,792
30,872
29,95
29,025
28,098
27,168
26,236
25,303
24,37
23,437
22,507
21,58
20,658
19,744
18,84
17,947
17,068
16,204
15,359
14,533
13,729
12,949
12,193
11,464
10,763
10,089
9,445
8,831
8,246
7,69
7,163
6,664
6,19
5,742
5,316
4,912
4,527
4,16
3,808
3,469
3,142
2,823
2,51
2,202
1,895
1,587
1,275
0,958
0,633
0,298
-0,049
-0,408
-0,78
-1,166
-1,566
-1,979
-2,404
-2,841
-3,287
-3,741
-4,198
-4,656
-5,11
-5,556
-5,989
-6,402
-6,79
-7,146
-7,465
-7,74
-7,967
-8,138
-8,247
-8,288
-8,256
-8,145
-7,95
-7,665
-7,287
-6,811
-6,235
-5,556
-4,773
-3,885
-2,893
-1,798
-0,605
0,681
2,05
3,494
5,004
6,57
8,18
9,827
11,5
13,191
14,891
16,59
18,277
19,941
21,565
23,137
24,643
26,078
27,439
28,731
29,954
31,107
32,186
33,174
34,059
34,828
35,467
35,961
36,306
36,506
36,586
36,595
36,573
36,554
36,548
36,549
36,58
36,691
36,951
37,44
38,22
39,316
40,791
42,743
45,195
48,058
51,099
54,022
56,673
59,078
61,293
63,253
64,892
66,314
67,84
69,796
72,223
74,737
76,813
78,353
79,423
79,933
79,675
78,454
76,387
74,179
72,518
71,254
70,091
68,703
66,735
64,093
60,248
55,313
51,197
50,519
56,058
67,535
80,809
94,5
110,707
138,191
192,155
280,228
401,876
547,203
695,44
830,312
942,247
1027,677
1092,642
1142,325
1175,473
1186,91
1166,478
1105,029
1002,683
865,729
704,25
531,392
358,714
197,844
62,537
-36,704
-95,816
-116,131
-104,913
-71,244
-21,276
37,638
96,458
147,727
185,131
207,908
222,146
233,295
244,498
255,732
262,457
262,052
255,386
244,753
234,485
227,859
225,618
227,69
233,457
241,997
252,52
264,147
275,525
285,341
292,976
298,231
301,241
302,472
302,383
301,415
300,181
299,255
298,941
299,39
300,601
302,48
304,991
308,134
311,881
316,192
321,031
326,347
332,091
338,188
344,514
350,937
357,327
363,585
369,653
375,497
381,098
386,447
391,544
396,386
400,968
405,28
409,316
413,082
416,596
419,895
423,03
426,052
429,014
431,961
434,923
437,928
440,993
444,13
447,347
450,653
454,063
457,596
461,275
465,12
469,15
473,381
477,826
482,497
487,402
492,544
497,923
503,542
509,398
515,487
521,793
528,292
534,953
541,742
548,623
555,567
562,533
569,478
576,361
583,141
589,788
596,286
602,613
608,716
614,565
620,163
625,542
630,797
636,024
641,249
646,51
651,919
657,525
663,312
669,205
674,94
680,256
685,126
689,571
693,489
696,942
700,234
703,659
707,714
713,007
718,677
723,732
728,6
732,579
736,935
742,975
747,429
748,382
741,771
723,611
695,957
660,442
622,731
588,869
560,628
540,352
524,681
509,639
493,825
474,551
453,736
433,745
414,809
398,11
382,982
368,522
355,212
343,266
332,896
324,309
317,24
311,38
306,617
302,818
299,78
297,283
295,079
292,962
290,832
288,63
286,277
283,689
280,786
277,517
273,885
269,93
265,709
261,269
256,645
251,88
247,04
242,207
237,49
232,97
228,687
224,674
220,949
217,531
214,435
211,662
209,18
206,953
204,945
203,126
201,472
199,953
198,526
197,145
195,756
194,321
192,815
191,218
189,515
187,691
185,739
183,656
181,452
179,135
176,707
174,173
171,53
168,784
165,941
163,009
159,994
156,903
153,738
150,503
147,202
143,839
140,414
136,929
133,381
129,771
126,099
122,368
118,58
114,734
110,833
106,877
102,867
98,804
94,686
90,513
86,283
81,992
77,64
73,224
68,74
64,186
59,559
54,856
50,074
45,212
40,265
35,232
30,112
24,902
19,603
14,214
8,733
3,162
-2,5
-8,252
-14,092
-20,018
-26,03
-32,125
-38,3
-44,551
-50,876
-57,27
-63,729
-70,249
-76,826
-83,453
-90,125
-96,837
-103,583
-110,355
-117,149
-123,958
-130,774
-137,594
-144,409
-151,215
-158,007
-164,779
-171,527
-178,247
-184,936
-191,589
-198,205
-204,78
-211,313
-217,801
-224,245
-230,643
-236,994
-243,299
-249,558
-255,771
-261,94
-268,066
-274,149
-280,193
-286,197
-292,165
-298,098
-303,997
-309,866
-315,706
-321,519
-327,309
-333,077
-338,826
-344,558
-350,274
-355,977
-361,669
-367,35
-373,023
-378,686
-384,342
-389,991
-395,632
-401,266
-406,893
-412,513
-418,124
-423,727
-429,32
-434,903
-440,474
-446,033
-451,578
-457,11
-462,626
-468,128
-473,613
-479,083
-484,537
-489,975
-495,397
-500,803
-506,194
-511,568
-516,926
-522,27
-527,598
-532,913
-538,215
-543,504
-548,782
-554,051
-559,311
-564,565
-569,813
-575,058
-580,3
-585,542
-590,787
-596,034
-601,288
-606,549
-611,82
-617,101
-622,395
-627,702
-633,021
-638,353
-643,697
-649,054
-654,421
-659,798
-665,183
-670,575
-675,972
-681,372
-686,772
-692,169
-697,56
-702,941
-708,307
-713,655
-718,98
-724,275
-729,537
-734,758
-739,932
-745,054
-750,114
-755,105
-760,018
-764,844
-769,572
-774,193
-778,694
-783,065
-787,296
-791,379
-795,304
-799,062
-802,643
-806,038
-809,239
-812,237
-815,02
-817,577
-819,895
-821,962
-823,77
-825,31
-826,575
-827,555
-828,243
-828,635
-828,728
-828,518
-827,999
-827,161
-825,992
-824,489
-822,661
-820,523
-818,085
-815,361
-812,363
-809,112
-805,636
-801,953
-798,071
-793,986
-789,692
-785,197
-780,521
-775,696
-770,751
-765,706
-760,563
-755,323
-749,995
-744,586
-739,099
-733,517
-727,816
-722,001
-716,107
-710,196
-704,327
-698,533
-692,83
-687,229
-681,745
-676,405
-671,244
-666,289
-661,551
-657,05
-652,812
-648,875
-645,279
-642,012
-639,021
-636,227
-633,564
-631,007
-628,539
-626,104
-623,633
-621,042
-618,243
-615,211
-611,929
-608,318
-604,38
-600,179
-595,805
-591,551
-587,717
-584,385
-581,638
-579,515
-577,771
-576,239
-574,745
-572,691
-569,604
-565,361
-559,74
-552,812
-545,166
-537,049
-528,65
-520,711
-513,731
-508,042
-504,347
-502,857
-503,132
-505,139
-508,851
-513,612
-518,824
-523,496
-525,675
-523,557
-515,636
-499,844
-473,999
-436,411
-385,599
-320,8
-242,664
-152,5
-51,924
55,145
162,535
264,374
354,384
429,101
490,631
539,089
572,199
585,535
566,74
505,536
398,616
245,511
58,316
-141,755
-333,087
-490,499
-597,347
-652,285
-662,066
-640,485
-600,052
-546,605
-483,83
-417,44
-357,683
-313,431
-288,661
-279,59
-274,545
-265,701
-250,936
-232,682
-217,78
-209,238
-206,202
-206,449
-206,48
-204,597
-200,588
-194,603
-187,38
-179,442
-171,051
-162,702
-154,787
-147,693
-142,006
-137,887
-135,148
-133,556
-132,72
-132,279
-132,039
-131,723
-130,952
-129,511
-127,268
-124,166
-120,299
-115,734
-110,498
-104,681
-98,398
-91,781
-85,002
-78,196
-71,447
-64,839
-58,424
-52,241
-46,337
-40,74
-35,466
-30,534
-25,945
-21,69
-17,761
-14,129
-10,751
-7,569
-4,507
-1,489
1,551
4,664
7,883
11,224
14,691
18,293
22,037
25,94
30,037
34,349
38,889
43,672
48,695
53,943
59,4
65,027
70,761
76,57
82,431
88,342
94,345
100,462
106,702
113,075
119,565
126,158
132,857
139,642
146,507
153,473
160,562
167,827
175,374
183,268
191,573
200,344
209,56
219,2
229,249
239,649
250,362
261,353
272,566
283,96
295,492
307,069
318,59
329,932
340,894
351,287
360,898
369,478
376,861
382,909
387,506
390,607
392,164
392,129
390,483
387,214
382,308
375,791
367,695
358,059
347,009
334,708
321,377
307,315
292,775
277,982
263,138
248,382
233,84
219,641
205,876
192,618
179,956
167,971
156,755
146,428
137,037
128,581
121
114,159
107,924
102,165
96,757
91,609
86,66
81,865
77,212
72,726
68,411
64,267
60,279
56,388
52,566
48,816
45,163
41,674
38,442
35,574
33,191
31,409
30,296
29,884
30,172
31,103
32,623
34,662
37,136
39,999
43,205
46,703
50,447
54,382
58,414
62,437
66,32
69,916
73,12
75,865
78,105
79,847
81,119
81,973
82,502
82,777
82,847
82,757
82,527
82,175
81,746
81,289
80,864
80,558
80,432
80,529
80,888
81,511
82,379
83,454
84,664
85,944
87,253
88,562
89,857
91,136
92,386
93,596
94,762
95,862
96,879
97,802
98,614
99,316
99,92
100,443
100,923
101,392
101,872
102,379
102,921
103,501
104,121
104,78
105,47
106,187
106,931
107,702
108,502
109,333
110,19
111,069
111,963
112,863
113,763
114,658
115,544
116,417
117,276
118,12
118,951
119,771
120,579
121,374
122,156
122,922
123,671
124,402
125,112
125,801
126,467
127,11
127,73
128,327
128,902
129,456
129,988
130,5
130,993
131,466
131,921
132,358
132,779
133,183
133,573
133,948
134,312
134,664
135,006
135,34
135,666
135,986
136,301
136,611
136,919
137,225
137,531
137,839
138,15
138,466
138,789
139,121
139,464
139,82
140,189
140,574
140,976
141,396
141,835
142,294
142,774
143,277
143,803
144,354
144,928
145,528
146,154
146,804
147,48
148,181
148,906
149,655
150,428
151,223
152,04
152,878
153,735
154,61
155,501
156,405
157,322
158,247
159,18
160,117
161,055
161,991
162,922
163,845
164,756
165,652
166,53
167,387
168,218
169,021
169,792
170,529
171,228
171,886
172,5
173,069
173,589
174,058
174,473
174,834
175,138
175,384
175,57
175,694
175,756
175,756
175,691
175,563
175,37
175,114
174,794
174,411
173,968
173,464
172,901
172,282
171,609
170,883
170,107
169,283
168,414
167,502
166,55
165,559
164,534
163,477
162,389
161,276
160,138
158,978
157,8
156,606
155,398
154,179
152,951
151,717
150,481
149,243
148,008
146,778
145,554
144,34
143,138
141,949
140,776
139,62
138,482
137,365
136,27
135,198
134,152
133,132
132,142
131,183
130,257
129,366
128,511
127,694
126,917
126,181
125,487
124,838
124,234
123,677
123,17
122,713
122,307
121,953
121,652
121,403
121,207
121,063
120,971
120,93
120,94
121,001
121,111
121,27
121,477
121,73
122,028
122,37
122,751
123,168
123,616
124,087
124,576
125,075
125,576
126,071
126,553
127,015
127,45
127,85
128,209
128,514
128,756
128,924
129,005
128,991
128,867
128,626
128,261
127,769
127,152
126,408
125,529
124,503
123,314
121,941
120,369
118,581
116,562
114,305
111,811
109,089
106,159
103,038
99,739
96,268
92,619
88,799
84,834
80,768
76,663
72,601
68,664
64,936
61,513
58,474
55,874
53,752
52,121
50,978
50,33
50,192
50,586
51,499
52,869
54,588
56,519
58,519
60,44
62,097
63,252
63,722
63,41
62,259
60,211
57,124
52,844
47,372
40,916
33,738
25,981
17,962
10,333
3,852
-0,599
-3,276
-5,829
-8,436
-10,45
-10,131
-3,894
6,37
15,961
21,894
19,064
9,536
-0,389
-9,31
-11,483
-2,423
20,776
67,518
142,7
246,422
374,657
515,924
656,264
780,319
877,694
942,966
976,044
985,654
975,743
945,162
891,381
804,485
680,577
527,142
354,801
182,566
30,603
-90,35
-173,765
-221,293
-240,464
-235,425
-210
-167,36
-112,525
-56,552
-10,26
19,609
33,315
39,167
45,053
54,445
66,298
75,007
76,844
71,817
61,905
50,943
41,688
35,223
31,879
31,245
32,889
36,487
41,531
47,345
53,143
58,088
61,72
63,985
65,012
65,095
64,556
63,692
62,854
62,429
62,634
63,524
65,078
67,187
69,758
72,738
76,05
79,6
83,32
87,156
91,054
94,983
98,888
102,705
106,388
109,902
113,226
116,356
119,292
122,04
124,618
127,045
129,336
131,504
133,564
135,53
137,421
139,258
141,063
142,857
144,661
146,498
148,388
150,348
152,393
154,537
156,793
159,175
161,7
164,382
167,233
170,266
173,496
176,936
180,603
184,509
188,653
193,033
197,644
202,473
207,507
212,721
218,077
223,545
229,096
234,702
240,345
245,996
251,623
257,204
262,71
268,126
273,452
278,691
283,853
288,966
294,062
299,185
304,396
309,727
315,189
320,795
326,538
332,418
338,432
344,549
350,728
356,92
363,051
369,034
374,759
380,069
384,796
388,782
391,858
393,908
394,853
394,612
393,123
390,333
386,211
380,763
374,006
365,956
356,646
346,151
334,607
322,233
309,248
295,837
282,23
268,603
255,092
241,854
228,98
216,509
204,545
193,198
182,379
172,003
162,239
153,097
144,517
136,733
128,717
119,506
110,27
101,33
94,932
93,765
94,773
95,943
94,288
85,69
73,791
61,645
51,313
46,281
44,071
42,206
40,208
36,587
32,268
28,436
24,894
21,804
19,102
16,536
14,229
12,287
10,661
9,348
8,383
7,763
7,462
7,449
7,663
8,048
8,593
9,283
10,083
10,974
11,939
12,969
14,07
15,241
16,47
17,742
19,042
20,355
21,675
22,993
24,304
25,602
26,883
28,144
29,387
30,61
31,811
32,985
34,126
35,229
36,293
37,314
38,29
39,219
40,1
40,932
41,715
42,45
43,135
43,769
44,351
44,881
45,358
45,781
46,149
46,464
46,725
46,933
47,088
47,191
47,244
47,247
47,201
47,108
46,969
46,784
46,555
46,283
45,97
45,616
45,223
44,794
44,329
43,83
43,301
42,742
42,156
41,546
40,913
40,259
39,588
38,902
38,204
37,496
36,782
36,064
35,344
34,626
33,912
33,205
32,506
31,818
31,143
30,484
29,841
29,216
28,612
28,029
27,468
26,93
26,417
25,928
25,464
25,026
24,613
24,225
23,862
23,523
23,208
22,915
22,643
22,391
22,157
21,938
21,733
21,54
21,356
21,179
21,006
20,834
20,661
20,483
20,297
20,101
19,892
19,665
19,419
19,15
18,855
18,532
18,178
17,789
17,365
16,901
16,397
15,849
15,255
14,615
13,925
13,185
12,394
11,549
10,651
9,698
8,691
7,628
6,51
5,337
4,11
2,829
1,496
0,111
-1,325
-2,809
-4,341
-5,918
-7,538
-9,2
-10,901
-12,639
-14,412
-16,218
-18,055
-19,92
-21,812
-23,728
-25,667
-27,625
-29,603
-31,597
-33,606
-35,629
-37,663
-39,707
-41,76
-43,82
-45,886
-47,957
-50,031
-52,109
-54,19
-56,273
-58,357
-60,443
-62,53
-64,618
-66,708
-68,799
-70,892
-72,986
-75,082
-77,18
-79,28
-81,382
-83,486
-85,593
-87,702
-89,813
-91,926
-94,04
-96,155
-98,27
-100,385
-102,5
-104,615
-106,728
-108,839
-110,949
-113,056
-115,16
-117,261
-119,358
-121,451
-123,538
-125,62
-127,696
-129,765
-131,827
-133,882
-135,929
-137,967
-139,997
-142,019
-144,031
-146,035
-148,03
-150,016
-151,993
-153,963
-155,925
-157,88
-159,829
-161,772
-163,71
-165,644
-167,574
-169,5
-171,423
-173,343
-175,26
-177,174
-179,084
-180,992
-182,896
-184,797
-186,694
-188,586
-190,473
-192,354
-194,23
-196,098
-197,958
-199,809
-201,65
-203,481
-205,299
-207,105
-208,896
-210,672
-212,432
-214,173
-215,896
-217,598
-219,278
-220,936
-222,57
-224,18
-225,766
-227,326
-228,86
-230,369
-231,854
-233,315
-234,752
-236,166
-237,56
-238,933
-240,287
-241,623
-242,943
-244,248
-245,538
-246,816
-248,081
-249,335
-250,578
-251,812
-253,036
-254,251
-255,457
-256,653
-257,84
-259,016
-260,181
-261,332
-262,467
-263,585
-264,683
-265,757
-266,804
-267,821
-268,803
-269,746
-270,644
-271,491
-272,282
-273,011
-273,671
-274,257
-274,761
-275,179
-275,504
-275,732
-275,857
-275,877
-275,786
-275,581
-275,26
-274,819
-274,258
-273,577
-272,776
-271,855
-270,819
-269,671
-268,418
-267,068
-265,632
-264,119
-262,539
-260,907
-259,236
-257,544
-255,847
-254,16
-252,495
-250,871
-249,305
-247,816
-246,423
-245,138
-243,976
-242,951
-242,077
-241,374
-240,853
-240,521
-240,38
-240,43
-240,677
-241,14
-241,834
-242,766
-243,939
-245,352
-247,002
-248,89
-251,006
-253,32
-255,793
-258,374
-261,01
-263,675
-266,341
-268,992
-271,602
-274,108
-276,431
-278,497
-280,251
-281,667
-282,755
-283,497
-283,852
-283,868
-283,702
-283,645
-284,014
-284,972
-286,494
-288,495
-291,065
-294,366
-298,335
-302,575
-306,46
-309,455
-311,496
-312,881
-313,578
-313,302
-312,028
-310,083
-308,379
-308,17
-310,031
-313,894
-319,915
-328,189
-338,49
-350,353
-362,247
-371,549
-375,932
-373,32
-361,406
-338,413
-302,75
-252,809
-188,316
-110,716
-22,036
74,957
176,613
279,263
377,658
464,693
533,987
581,524
607,302
613,994
604,072
576,899
525,736
443,795
327,167
176,124
3,169
-173,719
-335,391
-461,259
-542,046
-578,498
-576,938
-549,298
-503,717
-445,323
-379,602
-314,437
-262,335
-232,021
-226,126
-239,044
-257,269
-272,12
-280,906
-285,07
-290,442
-298,885
-307,902
-314,957
-317,392
-314,496
-307,642
-298,229
-287,398
-276,254
-265,902
-257,019
-249,903
-244,604
-240,8
-238,145
-236,404
-235,205
-234,098
-232,849
-231,356
-229,622
-227,791
-225,939
-224,081
-222,279
-220,594
-219,052
-217,655
-216,348
-215,036
-213,672
-212,243
-210,746
-209,187
-207,535
-205,748
-203,801
-201,676
-199,363
-196,857
-194,139
-191,193
-188,027
-184,665
-181,156
-177,566
-173,932
-170,275
-166,614
-162,963
-159,345
-155,783
-152,275
-148,812
-145,384
-141,979
-138,594
-135,222
-131,837
-128,407
-124,893
-121,252
-117,452
-113,467
-109,269
-104,831
-100,134
-95,169
-89,94
-84,459
-78,74
-72,799
-66,659
-60,352
-53,914
-47,381
-40,78
-34,136
-27,477
-20,837
-14,255
-7,769
-1,399
4,851
10,978
16,997
22,928
28,806
34,689
40,646
46,73
52,98
59,417
66,044
72,874
79,919
87,187
94,682
102,371
110,198
118,095
125,961
133,664
141,042
147,895
154,013
159,216
163,338
166,243
167,824
167,974
166,603
163,637
159,008
152,694
144,712
135,102
123,97
111,476
97,816
83,245
68,031
52,423
36,671
21,019
5,664
-9,198
-23,39
-36,758
-49,129
-60,365
-70,368
-79,064
-86,442
-92,54
-97,425
-101,207
-104,025
-106,008
-107,306
-108,079
-108,437
-108,485
-108,312
-107,993
-107,628
-107,308
-107,09
-107,021
-107,112
-107,354
-107,73
-108,207
-108,722
-109,216
-109,613
-109,831
-109,822
-109,556
-109,009
-108,17
-107,018
-105,532
-103,714
-101,573
-99,127
-96,398
-93,404
-90,168
-86,732
-83,14
-79,44
-75,687
-71,916
-68,156
-64,432
-60,761
-57,161
-53,65
-50,233
-46,912
-43,69
-40,572
-37,563
-34,669
-31,887
-29,213
-26,641
-24,162
-21,772
-19,466
-17,238
-15,081
-12,993
-10,97
-9,008
-7,108
-5,264
-3,473
-1,729
-0,026
1,64
3,276
4,886
6,476
8,05
9,612
11,166
12,715
14,259
15,803
17,347
18,894
20,444
21,998
23,557
25,12
26,686
28,255
29,824
31,391
32,954
34,51
36,056
37,59
39,109
40,611
42,092
43,551
44,986
46,393
47,771
49,117
50,431
51,709
52,95
54,153
55,317
56,442
57,526
58,571
59,575
60,54
61,466
62,354
63,204
64,019
64,8
65,549
66,268
66,959
67,626
68,271
68,899
69,511
70,111
70,704
71,292
71,878
72,466
73,06
73,661
74,273
74,898
75,539
76,199
76,879
77,582
78,309
79,061
79,841
80,65
81,489
82,358
83,258
84,191
85,156
86,154
87,185
88,248
89,343
90,469
91,624
92,807
94,017
95,249
96,503
97,774
99,06
100,357
101,661
102,97
104,278
105,583
106,88
108,166
109,436
110,686
111,914
113,115
114,285
115,421
116,52
117,577
118,591
119,558
120,474
121,337
122,145
122,894
123,582
124,207
124,767
125,261
125,688
126,048
126,34
126,566
126,726
126,821
126,854
126,828
126,744
126,607
126,419
126,184
125,907
125,592
125,243
124,864
124,46
124,036
123,596
123,144
122,684
122,222
121,76
121,303
120,855
120,42
120,001
119,603
119,229
118,881
118,564
118,279
118,03
117,817
117,642
117,505
117,408
117,349
117,329
117,346
117,398
117,484
117,6
117,744
117,914
118,104
118,313
118,535
118,768
119,006
119,248
119,488
119,725
119,953
120,171
120,375
120,563
120,73
120,875
120,994
121,086
121,147
121,176
121,17
121,129
121,051
120,935
120,781
120,588
120,356
120,087
119,781
119,438
119,061
118,651
118,21
117,742
117,249
116,734
116,2
115,649
115,086
114,512
113,93
113,343
112,752
112,161
111,57
110,982
110,399
109,821
109,251
108,688
108,136
107,592
107,059
106,535
106,021
105,517
105,021
104,533
104,053
103,578
103,11
102,645
102,183
101,722
101,259
100,793
100,321
99,84
99,348
98,841
98,318
97,777
97,215
96,63
96,021
95,385
94,722
94,03
93,308
92,557
91,775
90,962
90,12
89,251
88,355
87,436
86,496
85,538
84,567
83,587
82,599
81,607
80,613
79,622
78,637
77,662
76,701
75,756
74,835
73,946
73,097
72,295
71,547
70,858
70,233
69,681
69,207
68,814
68,505
68,28
68,147
68,117
68,201
68,404
68,719
69,135
69,643
70,237
70,909
71,643
72,42
73,226
74,061
74,935
75,863
76,846
77,87
78,911
79,941
80,947
81,928
82,891
83,832
84,747
85,638
86,528
87,447
88,401
89,363
90,27
91,058
91,688
92,141
92,418
92,52
92,436
92,144
91,621
90,853
89,816
88,475
86,77
84,625
82,01
78,942
75,502
71,79
67,882
63,832
59,673
55,424
51,125
46,827
42,59
38,485
34,602
31,024
27,868
25,293
23,345
21,961
20,964
20,051
18,955
17,503
15,555
12,994
9,945
6,679
3,509
0,931
-0,7
-1,168
-0,236
2,163
5,631
9,572
13,469
16,657
18,678
19,069
16,941
11,658
3,303
-7,92
-21,869
-37,947
-55,727
-73,486
-87,349
-94,977
-95,209
-87,893
-75,145
-54,462
-19,302
35,822
116,577
221,168
340,208
464,73
584,552
692,407
785,324
859,325
911,86
942,942
952,448
941,04
908,894
851,21
763,54
644,526
494,776
324,722
150,719
-10,96
-141,987
-230,664
-275,891
-280,184
-251,37
-202,273
-142,446
-83,158
-37,123
-8,016
4,017
3,816
2,484
4,641
10,828
19,239
23,811
22,443
16,377
7,38
-0,914
-6,278
-8,698
-8,47
-6,331
-3,098
0,877
5,161
8,932
11,385
12,149
11,21
8,808
5,367
1,216
-3,376
-8,001
-12,224
-15,79
-18,579
-20,583
-21,885
-22,508
-22,418
-21,651
-20,285
-18,417
-16,172
-13,642
-10,886
-7,992
-5,057
-2,17
0,594
3,198
5,64
7,911
10,001
11,898
13,578
15,039
16,296
17,369
18,293
19,099
19,813
20,47
21,106
21,754
22,443
23,19
24,001
24,886
25,861
26,94
28,145
29,494
31,001
32,682
34,551
36,621
38,909
41,43
44,202
47,239
50,546
54,128
57,985
62,113
66,501
71,129
75,964
80,976
86,134
91,413
96,8
102,27
107,795
113,34
118,86
124,329
129,74
135,091
140,385
145,641
150,888
156,179
161,597
167,207
173,056
179,171
185,547
192,191
199,115
206,326
213,835
221,613
229,593
237,697
245,833
253,874
261,67
269,015
275,66
281,386
286,007
289,365
291,343
291,808
290,634
287,715
282,959
276,328
267,837
257,519
245,441
231,718
216,516
200,076
182,697
164,649
146,185
127,547
108,95
90,646
72,874
55,843
39,752
24,75
10,95
-1,55
-12,684
-22,435
-30,834
-37,973
-43,994
-49,016
-53,165
-56,567
-59,351
-61,685
-63,72
-65,576
-67,371
-69,192
-71,111
-73,201
-75,51
-78,049
-80,815
-83,772
-86,864
-90,049
-93,277
-96,488
-99,619
-102,581
-105,307
-107,754
-109,882
-111,669
-113,098
-114,152
-114,831
-115,155
-115,142
-114,821
-114,224
-113,376
-112,31
-111,067
-109,687
-108,221
-106,709
-105,179
-103,654
-102,155
-100,695
-99,29
-97,947
-96,662
-95,438
-94,275
-93,175
-92,141
-91,173
-90,266
-89,417
-88,619
-87,866
-87,156
-86,485
-85,849
-85,245
-84,67
-84,122
-83,601
-83,105
-82,632
-82,178
-81,738
-81,309
-80,887
-80,467
-80,046
-79,62
-79,187
-78,744
-78,292
-77,827
-77,35
-76,86
-76,356
-75,839
-75,308
-74,764
-74,208
-73,64
-73,061
-72,475
-71,883
-71,286
-70,688
-70,09
-69,496
-68,907
-68,326
-67,756
-67,198
-66,656
-66,131
-65,626
-65,143
-64,684
-64,252
-63,847
-63,471
-63,127
-62,814
-62,533
-62,285
-62,069
-61,885
-61,732
-61,61
-61,518
-61,454
-61,419
-61,41
-61,428
-61,47
-61,535
-61,622
-61,73
-61,857
-62,003
-62,165
-62,342
-62,535
-62,74
-62,958
-63,188
-63,429
-63,68
-63,941
-64,211
-64,49
-64,777
-65,072
-65,375
-65,686
-66,004
-66,331
-66,666
-67,009
-67,363
-67,726
-68,1
-68,486
-68,884
-69,295
-69,719
-70,156
-70,606
-71,07
-71,547
-72,038
-72,542
-73,059
-73,588
-74,128
-74,679
-75,239
-75,808
-76,384
-76,965
-77,552
-78,141
-78,732
-79,324
-79,916
-80,506
-81,093
-81,677
-82,256
-82,827
-83,391
-83,944
-84,486
-85,015
-85,529
-86,028
-86,509
-86,972
-87,415
-87,838
-88,24
-88,62
-88,977
-89,313
-89,625
-89,915
-90,182
-90,428
-90,653
-90,857
-91,044
-91,212
-91,364
-91,5
-91,622
-91,73
-91,825
-91,909
-91,981
-92,044
-92,097
-92,142
-92,181
-92,214
-92,242
-92,268
-92,292
-92,315
-92,339
-92,365
-92,393
-92,426
-92,464
-92,509
-92,561
-92,622
-92,692
-92,773
-92,864
-92,965
-93,078
-93,201
-93,334
-93,477
-93,629
-93,791
-93,962
-94,141
-94,329
-94,525
-94,729
-94,94
-95,159
-95,385
-95,617
-95,855
-96,099
-96,348
-96,602
-96,861
-97,123
-97,389
-97,658
-97,93
-98,202
-98,476
-98,749
-99,022
-99,292
-99,559
-99,822
-100,081
-100,335
-100,583
-100,824
-101,059
-101,286
-101,506
-101,716
-101,917
-102,109
-102,289
-102,457
-102,612
-102,753
-102,879
-102,987
-103,076
-103,144
-103,189
-103,21
-103,202
-103,165
-103,094
-102,988
-102,843
-102,658
-102,428
-102,152
-101,826
-101,45
-101,019
-100,534
-99,991
-99,388
-98,724
-97,997
-97,206
-96,351
-95,431
-94,445
-93,395
-92,282
-91,107
-89,874
-88,586
-87,246
-85,86
-84,435
-82,979
-81,503
-80,019
-78,538
-77,07
-75,626
-74,216
-72,851
-71,54
-70,293
-69,118
-68,023
-67,02
-66,121
-65,338
-64,681
-64,151
-63,744
-63,457
-63,287
-63,238
-63,319
-63,537
-63,896
-64,403
-65,066
-65,892
-66,884
-68,028
-69,286
-70,616
-71,977
-73,346
-74,723
-76,107
-77,473
-78,76
-79,885
-80,778
-81,397
-81,721
-81,709
-81,269
-80,378
-79,145
-77,817
-76,682
-75,899
-75,413
-75,128
-75,125
-75,444
-76,006
-76,557
-76,661
-76,167
-75,378
-74,662
-74,11
-73,769
-73,651
-73,859
-74,841
-76,716
-79,135
-81,887
-85,095
-88,907
-93,488
-99,057
-105,462
-112,42
-119,79
-125,984
-127,751
-123,281
-111,475
-92,179
-67,828
-36,222
8,552
70,921
156,344
263,151
381,238
501,181
611,737
704,059
777,052
829,633
861,655
875,046
866,454
831,855
768,889
674,125
549,905
402,513
240,282
76,863
-73,752
-198,042
-285,665
-334,695
-348,761
-335,348
-302,815
-257,178
-204,742
-153,139
-109,436
-78,241
-58,986
-46,035
-33,777
-19,765
-5,401
4,923
8,557
5,742
-1,679
-10,39
-18,198
-24,329
-28,121
-29,668
-29,391
-27,497
-24,439
-20,901
-17,363
-14,355
-12,513
-11,972
-12,573
-14,106
-16,179
-18,465
-20,778
-22,833
-24,296
-24,986
-24,805
-23,747
-21,924
-19,401
-16,227
-12,502
-8,344
-3,906
0,666
5,266
9,815
14,259
18,562
22,683
26,587
30,255
33,664
36,805
39,684
42,293
44,635
46,729
48,597
50,289
51,857
53,339
54,769
56,175
57,574
58,992
60,449
61,954
63,523
65,17
66,909
68,763
70,754
72,897
75,208
77,701
80,392
83,302
86,453
89,852
93,506
97,414
101,574
105,98
110,616
115,454
120,463
125,617
130,891
136,275
141,753
147,296
152,873
158,445
163,981
169,467
174,901
180,279
185,612
190,928
196,276
201,738
207,384
213,259
219,379
225,739
232,327
239,142
246,178
253,424
260,861
268,442
276,114
283,815
291,452
298,889
305,946
312,396
318,021
322,652
326,162
328,444
329,408
328,959
327,021
323,532
318,438
311,69
303,248
293,097
281,276
267,897
253,13
237,202
220,353
202,78
184,666
166,194
147,538
128,876
110,382
92,221
74,578
57,671
41,719
26,906
13,359
1,138
-9,752
-19,34
-27,68
-34,824
-40,829
-45,772
-49,724
-52,758
-54,959
-56,426
-57,287
-57,727
-57,934
-58,056
-58,213
-58,478
-58,9
-59,516
-60,342
-61,374
-62,599
-63,995
-65,545
-67,243
-69,07
-70,989
-72,944
-74,84
-76,596
-78,154
-79,473
-80,53
-81,314
-81,814
-82,039
-82,016
-81,775
-81,345
-80,75
-80,002
-79,124
-78,145
-77,103
-76,045
-75,007
-74,015
-73,088
-72,243
-71,487
-70,829
-70,268
-69,793
-69,392
-69,06
-68,792
-68,586
-68,438
-68,341
-68,287
-68,268
-68,279
-68,315
-68,373
-68,447
-68,535
-68,636
-68,748
-68,873
-69,012
-69,162
-69,321
-69,487
-69,657
-69,829
-70
-70,167
-70,328
-70,482
-70,627
-70,764
-70,893
-71,014
-71,126
-71,23
-71,327
-71,419
-71,506
-71,59
-71,671
-71,751
-71,833
-71,915
-72,001
-72,089
-72,181
-72,277
-72,378
-72,482
-72,591
-72,704
-72,82
-72,941
-73,066
-73,195
-73,328
-73,467
-73,611
-73,761
-73,917
-74,08
-74,249
-74,424
-74,604
-74,791
-74,982
-75,178
-75,378
-75,581
-75,786
-75,994
-76,202
-76,409
-76,616
-76,819
-77,02
-77,215
-77,406
-77,59
-77,768
-77,939
-78,103
-78,258
-78,406
-78,545
-78,676
-78,796
-78,906
-79,005
-79,091
-79,165
-79,225
-79,27
-79,3
-79,315
-79,312
-79,291
-79,252
-79,193
-79,114
-79,013
-78,891
-78,747
-78,58
-78,389
-78,176
-77,94
-77,682
-77,4
-77,096
-76,77
-76,422
-76,053
-75,662
-75,251
-74,819
-74,368
-73,899
-73,412
-72,908
-72,39
-71,858
-71,314
-70,76
-70,197
-69,626
-69,051
-68,472
-67,891
-67,312
-66,737
-66,167
-65,607
-65,057
-64,521
-64,002
-63,502
-63,023
-62,568
-62,138
-61,736
-61,364
-61,024
-60,717
-60,445
-60,21
-60,013
-59,855
-59,737
-59,659
-59,622
-59,625
-59,67
-59,755
-59,88
-60,044
-60,248
-60,49
-60,769
-61,084
-61,433
-61,816
-62,229
-62,671
-63,139
-63,632
-64,145
-64,677
-65,225
-65,786
-66,356
-66,934
-67,516
-68,1
-68,682
-69,262
-69,836
-70,402
-70,958
-71,502
-72,034
-72,553
-73,056
-73,545
-74,02
-74,479
-74,923
-75,353
-75,769
-76,172
-76,561
-76,939
-77,305
-77,661
-78,008
-78,346
-78,678
-79,005
-79,327
-79,648
-79,969
-80,29
-80,615
-80,943
-81,276
-81,615
-81,961
-82,314
-82,674
-83,042
-83,417
-83,799
-84,187
-84,578
-84,972
-85,365
-85,756
-86,14
-86,514
-86,876
-87,22
-87,544
-87,844
-88,117
-88,358
-88,565
-88,734
-88,863
-88,952
-88,996
-88,995
-88,947
-88,853
-88,713
-88,528
-88,297
-88,024
-87,711
-87,36
-86,98
-86,577
-86,155
-85,723
-85,287
-84,851
-84,426
-84,017
-83,628
-83,262
-82,923
-82,618
-82,368
-82,188
-82,087
-82,079
-82,171
-82,37
-82,69
-83,132
-83,69
-84,37
-85,167
-86,085
-87,139
-88,336
-89,678
-91,152
-92,713
-94,306
-95,888
-97,4
-98,784
-99,991
-100,951
-101,621
-101,988
-102,016
-101,678
-100,951
-99,794
-98,188
-96,14
-93,685
-90,914
-87,949
-84,913
-81,963
-79,267
-76,993
-75,336
-74,421
-74,345
-75,263
-77,272
-80,422
-84,663
-89,734
-95,32
-101,134
-106,747
-111,613
-115,247
-117,179
-117,312
-116,191
-114,316
-112,141
-110,362
-109,571
-110,386
-113,612
-118,198
-120,927
-119,029
-109,497
-92,633
-72,992
-52,025
-28,942
3,166
58,651
147,345
272,371
425,405
583,317
720,727
818,302
868,978
882,732
876,903
863,696
843,519
803,41
725,263
598,329
427,163
230,756
36,146
-130,346
-253,104
-328,429
-361,765
-364,458
-344,695
-305,865
-251,238
-184,304
-114,351
-56,15
-18,669
-4,527
-8,423
-17,529
-24,085
-26,128
-25,472
-27,934
-35,539
-46,264
-57,295
-65,05
-68,134
-67,324
-63,553
-57,85
-51,041
-43,739
-36,767
-31,016
-26,908
-24,43
-23,374
-23,378
-24,096
-25,228
-26,378
-27,132
-27,266
-26,713
-25,494
-23,713
-21,445
-18,729
-15,642
-12,27
-8,676
-4,919
-1,036
2,939
6,951
10,933
14,82
18,56
22,123
25,492
28,656
31,613
34,366
36,925
39,308
41,528
43,6
45,539
47,361
49,085
50,737
52,341
53,922
55,503
57,103
58,74
60,434
62,2
64,054
66,01
68,082
70,286
72,641
75,165
77,874
80,781
83,9
87,245
90,835
94,684
98,805
103,2
107,866
112,799
117,989
123,418
129,061
134,881
140,841
146,906
153,048
159,243
165,462
171,671
177,827
183,891
189,839
195,663
201,359
206,935
212,409
217,81
223,196
228,636
234,186
239,887
245,759
251,806
258,04
264,476
271,127
277,995
285,043
292,204
299,4
306,523
313,446
320,013
326,019
331,251
335,525
338,679
340,584
341,134
340,207
337,686
333,472
327,482
319,695
310,14
298,865
285,97
271,596
255,924
239,204
221,703
203,658
185,297
166,828
148,447
130,385
112,882
96,151
80,399
65,78
52,396
40,336
29,641
20,305
12,291
5,497
-0,199
-4,896
-8,689
-11,68
-13,967
-15,69
-17,014
-18,075
-19,011
-19,932
-20,911
-22,019
-23,306
-24,785
-26,451
-28,271
-30,195
-32,194
-34,244
-36,309
-38,356
-40,325
-42,14
-43,747
-45,096
-46,151
-46,895
-47,312
-47,394
-47,152
-46,611
-45,803
-44,763
-43,519
-42,093
-40,515
-38,814
-37,03
-35,208
-33,382
-31,579
-29,823
-28,134
-26,525
-25,011
-23,596
-22,278
-21,054
-19,923
-18,884
-17,938
-17,083
-16,316
-15,63
-15,02
-14,479
-14,004
-13,591
-13,235
-12,93
-12,672
-12,457
-12,285
-12,15
-12,05
-11,979
-11,93
-11,9
-11,882
-11,871
-11,861
-11,848
-11,825
-11,79
-11,738
-11,666
-11,571
-11,448
-11,297
-11,115
-10,901
-10,654
-10,373
-10,059
-9,713
-9,336
-8,929
-8,493
-8,032
-7,546
-7,039
-6,514
-5,973
-5,42
-4,858
-4,29
-3,72
-3,152
-2,588
-2,032
-1,487
-0,956
-0,441
0,054
0,527
0,977
1,4
1,796
2,164
2,502
2,809
3,087
3,335
3,554
3,744
3,908
4,047
4,163
4,258
4,335
4,396
4,444
4,483
4,515
4,543
4,571
4,603
4,64
4,687
4,747
4,821
4,912
5,023
5,154
5,309
5,488
5,693
5,924
6,182
6,468
6,782
7,123
7,492
7,886
8,305
8,746
9,208
9,689
10,187
10,698
11,22
11,75
12,285
12,822
13,358
13,89
14,413
14,926
15,423
15,904
16,364
16,801
17,213
17,598
17,953
18,279
18,572
18,833
19,06
19,252
19,409
19,531
19,618
19,67
19,688
19,672
19,624
19,545
19,435
19,297
19,131
18,94
18,724
18,486
18,227
17,948
17,651
17,339
17,011
16,671
16,319
15,958
15,587
15,208
14,821
14,428
14,028
13,621
13,209
12,79
12,364
11,933
11,495
11,051
10,6
10,142
9,677
9,204
8,723
8,234
7,736
7,23
6,716
6,193
5,663
5,125
4,581
4,03
3,474
2,913
2,347
1,779
1,207
0,635
0,062
-0,509
-1,077
-1,641
-2,198
-2,748
-3,289
-3,82
-4,339
-4,844
-5,336
-5,814
-6,275
-6,721
-7,149
-7,56
-7,955
-8,332
-8,692
-9,037
-9,366
-9,682
-9,986
-10,279
-10,562
-10,838
-11,108
-11,375
-11,639
-11,903
-12,169
-12,439
-12,716
-13,001
-13,298
-13,608
-13,934
-14,278
-14,641
-15,025
-15,431
-15,862
-16,317
-16,797
-17,304
-17,837
-18,397
-18,982
-19,594
-20,23
-20,889
-21,57
-22,27
-22,988
-23,72
-24,466
-25,222
-25,986
-26,756
-27,529
-28,303
-29,075
-29,842
-30,603
-31,353
-32,092
-32,815
-33,521
-34,208
-34,874
-35,517
-36,136
-36,73
-37,298
-37,839
-38,353
-38,839
-39,298
-39,73
-40,136
-40,518
-40,878
-41,218
-41,541
-41,85
-42,15
-42,442
-42,731
-43,021
-43,313
-43,612
-43,92
-44,241
-44,579
-44,938
-45,321
-45,732
-46,175
-46,654
-47,172
-47,731
-48,334
-48,984
-49,682
-50,43
-51,231
-52,084
-52,992
-53,955
-54,974
-56,048
-57,175
-58,355
-59,584
-60,857
-62,171
-63,518
-64,893
-66,29
-67,703
-69,127
-70,556
-71,986
-73,413
-74,831
-76,234
-77,616
-78,967
-80,277
-81,535
-82,731
-83,854
-84,894
-85,842
-86,691
-87,435
-88,071
-88,593
-88,995
-89,267
-89,398
-89,379
-89,206
-88,88
-88,408
-87,802
-87,084
-86,275
-85,402
-84,486
-83,543
-82,578
-81,586
-80,562
-79,497
-78,395
-77,268
-76,13
-74,989
-73,847
-72,702
-71,541
-70,339
-69,066
-67,68
-66,156
-64,488
-62,695
-60,822
-58,926
-57,074
-55,319
-53,7
-52,253
-51,023
-50,049
-49,37
-49,036
-49,101
-49,626
-50,688
-52,331
-54,556
-57,331
-60,583
-64,215
-68,118
-72,187
-76,322
-80,424
-84,389
-88,123
-91,546
-94,58
-97,16
-99,219
-100,689
-101,549
-101,825
-101,589
-100,96
-100,086
-99,139
-98,301
-97,733
-97,623
-98,203
-99,634
-101,98
-105,191
-109,02
-113,161
-117,356
-121,207
-124,178
-125,851
-125,937
-124,472
-122,032
-119,299
-116,885
-115,504
-115,845
-118,322
-123,037
-129,356
-135,606
-139,65
-139,149
-131,564
-114,234
-84,591
-40,531
19,224
93,827
180,582
276,48
377,492
480,697
584,761
686,228
780,633
859,976
911,974
926,942
899,082
829,563
727,058
600,46
456,504
300,247
137,786
-19,607
-155,572
-255,174
-311,79
-328,163
-313,457
-276,816
-224,864
-162,66
-98,136
-44,326
-10,844
-1,798
-12,744
-30,08
-44,25
-51,638
-53,542
-56,42
-63,157
-72,291
-81,154
-86,403
-86,973
-83,835
-78,156
-71,186
-63,766
-56,637
-50,732
-46,536
-44,16
-43,474
-44,112
-45,764
-48,151
-50,857
-53,407
-55,478
-56,898
-57,633
-57,748
-57,272
-56,22
-54,64
-52,604
-50,192
-47,464
-44,462
-41,212
-37,756
-34,161
-30,502
-26,859
-23,301
-19,874
-16,608
-13,526
-10,646
-7,971
-5,501
-3,225
-1,125
0,814
2,606
4,266
5,811
7,261
8,641
9,977
11,292
12,605
13,935
15,295
16,702
18,17
19,713
21,346
23,082
24,935
26,921
29,057
31,361
33,848
36,533
39,426
42,539
45,884
49,474
53,324
57,444
61,833
66,486
71,394
76,543
81,914
87,478
93,193
99,016
104,912
110,851
116,81
122,762
128,67
134,495
140,195
145,746
151,145
156,393
161,492
166,461
171,328
176,15
181,004
185,956
191,046
196,291
201,696
207,27
213,031
218,999
225,165
231,483
237,88
244,268
250,55
256,604
262,273
267,353
271,62
274,874
276,957
277,744
277,118
274,955
271,135
265,55
258,153
248,954
237,996
225,351
211,119
195,436
178,506
160,599
141,997
122,963
103,735
84,528
65,576
47,138
29,457
12,759
-2,786
-17,071
-30,001
-41,508
-51,562
-60,169
-67,399
-73,384
-78,254
-82,126
-85,121
-87,354
-88,974
-90,166
-91,091
-91,895
-92,691
-93,556
-94,564
-95,781
-97,243
-98,96
-100,911
-103,045
-105,321
-107,712
-110,172
-112,657
-115,102
-117,417
-119,544
-121,434
-123,044
-124,36
-125,383
-126,11
-126,561
-126,757
-126,704
-126,432
-125,994
-125,392
-124,601
-123,611
-122,415
-121,051
-119,622
-118,169
-116,638
-115,119
-113,886
-113,004
-112,395
-112,088
-111,793
-112,036
-114,457
-118,688
-123,226
-125,573
-121,052
-109,975
-97,018
-86,852
-86,111
-95,166
-107,749
-119,017
-123,728
-121,004
-115,532
-110,176
-106,906
-106,298
-106,439
-106,467
-106,443
-106,3
-106,325
-106,588
-106,83
-106,975
-107,067
-107,1
-107,062
-106,964
-106,818
-106,649
-106,502
-106,392
-106,299
-106,217
-106,149
-106,095
-106,058
-106,035
-106,021
-106,014
-106,017
-106,03
-106,054
-106,088
-106,132
-106,184
-106,245
-106,314
-106,392
-106,477
-106,568
-106,667
-106,772
-106,883
-106,998
-107,118
-107,24
-107,364
-107,489
-107,612
-107,732
-107,847
-107,957
-108,06
-108,154
-108,241
-108,317
-108,384
-108,44
-108,487
-108,522
-108,547
-108,562
-108,566
-108,56
-108,544
-108,518
-108,482
-108,437
-108,383
-108,319
-108,246
-108,162
-108,067
-107,961
-107,843
-107,711
-107,565
-107,406
-107,232
-107,043
-106,839
-106,62
-106,387
-106,138
-105,874
-105,594
-105,3
-104,989
-104,663
-104,321
-103,963
-103,589
-103,198
-102,791
-102,367
-101,926
-101,467
-100,99
-100,495
-99,981
-99,449
-98,9
-98,333
-97,749
-97,15
-96,537
-95,911
-95,274
-94,627
-93,971
-93,307
-92,638
-91,963
-91,285
-90,603
-89,92
-89,237
-88,553
-87,871
-87,191
-86,514
-85,84
-85,171
-84,507
-83,848
-83,196
-82,551
-81,915
-81,289
-80,673
-80,07
-79,479
-78,901
-78,337
-77,788
-77,253
-76,733
-76,227
-75,735
-75,257
-74,793
-74,342
-73,903
-73,478
-73,064
-72,662
-72,272
-71,893
-71,526
-71,169
-70,823
-70,488
-70,164
-69,851
-69,551
-69,262
-68,985
-68,72
-68,467
-68,226
-67,997
-67,779
-67,572
-67,375
-67,189
-67,012
-66,846
-66,689
-66,541
-66,403
-66,274
-66,155
-66,045
-65,944
-65,852
-65,769
-65,694
-65,628
-65,571
-65,521
-65,479
-65,444
-65,416
-65,393
-65,375
-65,36
-65,347
-65,336
-65,324
-65,311
-65,295
-65,276
-65,253
-65,225
-65,191
-65,15
-65,103
-65,047
-64,984
-64,912
-64,832
-64,743
-64,645
-64,538
-64,423
-64,299
-64,167
-64,027
-63,879
-63,723
-63,56
-63,39
-63,212
-63,027
-62,836
-62,638
-62,434
-62,224
-62,01
-61,79
-61,567
-61,34
-61,108
-60,872
-60,631
-60,383
-60,128
-59,865
-59,591
-59,305
-59,005
-58,687
-58,349
-57,988
-57,6
-57,181
-56,727
-56,232
-55,693
-55,105
-54,464
-53,765
-53,006
-52,182
-51,291
-50,329
-49,293
-48,18
-46,988
-45,714
-44,356
-42,914
-41,388
-39,777
-38,084
-36,315
-34,473
-32,565
-30,596
-28,576
-26,512
-24,415
-22,298
-20,174
-18,055
-15,956
-13,892
-11,878
-9,931
-8,066
-6,293
-4,622
-3,063
-1,624
-0,319
0,846
1,871
2,757
3,505
4,118
4,588
4,916
5,108
5,167
5,099
4,908
4,593
4,163
3,639
3,044
2,418
1,789
1,169
0,571
-0,01
-0,56
-1,04
-1,415
-1,646
-1,687
-1,523
-1,106
-0,35
0,724
2,014
3,32
4,287
4,636
4,211
2,808
0,324
-3,12
-7,293
-11,577
-15,015
-16,841
-16,371
-12,986
-6,546
2,745
14,431
27,304
39,781
50,404
57,475
59,525
55,858
46,222
30,978
11,499
-10,419
-32,585
-51,911
-65,228
-69,669
-62,468
-41,431
-5,033
47,809
117,104
201,493
298,843
406,129
519,348
633,002
740,082
833,716
908,592
963,312
998,701
1014,341
1007,85
972,152
900,388
790,414
644,755
474,742
295,123
122,142
-27,305
-142,747
-217,129
-250,819
-250,328
-221,243
-173,601
-115,761
-55,301
-3,924
33,587
56,024
65,514
71,095
77,148
84,437
92,171
95,667
93,435
87,106
78,803
71,955
68,638
68,912
72,365
78,164
85,38
93,342
101,286
108,303
113,566
116,669
117,628
116,667
114,236
110,82
106,839
102,78
99,101
96,057
93,779
92,343
91,742
91,974
93,04
94,88
97,419
100,603
104,36
108,607
113,232
118,078
123,005
127,904
132,694
137,323
141,746
145,912
149,784
153,348
156,602
159,552
162,202
164,552
166,617
168,431
170,047
171,529
172,928
174,282
175,622
176,973
178,359
179,806
181,329
182,935
184,635
186,443
188,378
190,467
192,726
195,168
197,802
200,64
203,7
207,002
210,559
214,376
218,453
222,788
227,377
232,214
237,277
242,532
247,948
253,494
259,152
264,906
270,733
276,6
282,47
288,307
294,092
299,817
305,478
311,075
316,62
322,141
327,694
333,349
339,152
345,127
351,266
357,554
363,985
370,551
377,243
384,036
390,878
397,707
404,467
411,08
417,439
423,402
428,777
433,37
437,026
439,625
441,085
441,336
440,297
437,9
434,096
428,85
422,161
414,032
404,451
393,46
381,146
367,648
353,172
337,921
322,065
305,768
289,171
272,413
255,663
239,073
222,786
206,959
191,727
177,231
163,632
151,031
139,487
129,018
119,583
111,146
103,683
97,152
91,51
86,714
82,687
79,353
76,638
74,423
72,6
71,062
69,68
68,369
67,071
65,736
64,352
62,911
61,395
59,809
58,16
56,448
54,694
52,922
51,16
49,466
47,893
46,478
45,268
44,286
43,543
43,048
42,794
42,762
42,937
43,297
43,818
44,483
45,268
46,146
47,086
48,049
48,999
49,913
50,767
51,547
52,241
52,841
53,342
53,753
54,078
54,32
54,486
54,575
54,591
54,541
54,431
54,268
54,059
53,808
53,519
53,194
52,838
52,452
52,036
51,59
51,112
50,604
50,068
49,505
48,917
48,306
47,673
47,02
46,349
45,659
44,952
44,226
43,48
42,714
41,928
41,119
40,287
39,43
38,547
37,637
36,698
35,73
34,731
33,7
32,638
31,543
30,416
29,258
28,07
26,852
25,605
24,331
23,032
21,709
20,364
18,998
17,612
16,209
14,791
13,358
11,914
10,46
8,998
7,532
6,064
4,597
3,133
1,675
0,225
-1,214
-2,639
-4,049
-5,442
-6,815
-8,167
-9,496
-10,8
-12,079
-13,332
-14,557
-15,754
-16,923
-18,063
-19,175
-20,259
-21,314
-22,34
-23,338
-24,307
-25,247
-26,159
-27,042
-27,897
-28,724
-29,523
-30,296
-31,043
-31,764
-32,459
-33,13
-33,776
-34,398
-34,996
-35,571
-36,123
-36,653
-37,16
-37,646
-38,112
-38,557
-38,982
-39,388
-39,776
-40,146
-40,498
-40,835
-41,157
-41,466
-41,764
-42,052
-42,332
-42,607
-42,878
-43,148
-43,419
-43,693
-43,973
-44,26
-44,558
-44,868
-45,193
-45,537
-45,901
-46,289
-46,703
-47,145
-47,619
-48,126
-48,669
-49,249
-49,869
-50,53
-51,234
-51,982
-52,774
-53,611
-54,492
-55,418
-56,386
-57,395
-58,443
-59,527
-60,646
-61,795
-62,971
-64,171
-65,39
-66,625
-67,871
-69,123
-70,376
-71,624
-72,863
-74,088
-75,291
-76,469
-77,615
-78,724
-79,79
-80,808
-81,773
-82,679
-83,522
-84,298
-85,003
-85,635
-86,19
-86,668
-87,068
-87,391
-87,637
-87,81
-87,913
-87,948
-87,923
-87,843
-87,714
-87,545
-87,344
-87,121
-86,89
-86,662
-86,451
-86,273
-86,141
-86,074
-86,087
-86,197
-86,418
-86,765
-87,252
-87,896
-88,713
-89,719
-90,93
-92,359
-94,021
-95,926
-98,087
-100,509
-103,197
-106,149
-109,368
-112,856
-116,623
-120,676
-125,019
-129,651
-134,569
-139,761
-145,211
-150,897
-156,78
-162,82
-168,977
-175,208
-181,482
-187,767
-194,018
-200,187
-206,21
-212,023
-217,573
-222,814
-227,706
-232,242
-236,423
-240,282
-243,887
-247,302
-250,605
-253,891
-257,252
-260,79
-264,627
-268,864
-273,645
-279,169
-285,534
-292,761
-300,748
-309,155
-317,63
-325,84
-333,291
-339,46
-344,002
-346,675
-347,67
-347,772
-347,673
-348,038
-349,661
-352,952
-358,074
-365,212
-373,526
-381,028
-385,922
-385,036
-375,044
-354,956
-322,935
-279,287
-225,978
-160,953
-83,975
5,142
105,796
208,578
303,828
382,46
438,389
475,676
497,257
504,326
492,129
445,977
356,314
217,752
35,99
-166,03
-363,453
-528,96
-641,593
-700,388
-714,596
-701,207
-678,414
-650,475
-613,895
-564,898
-502,381
-436,616
-382,226
-347,852
-335,095
-336,18
-340,738
-343,557
-344,091
-345,756
-351,366
-360,135
-369,334
-375,595
-377,31
-374,91
-369,469
-362,242
-354,159
-345,957
-338,58
-332,969
-329,551
-328,273
-328,807
-330,624
-333,265
-336,346
-339,433
-342,089
-344,046
-345,173
-345,404
-344,786
-343,366
-341,167
-338,255
-334,702
-330,577
-325,97
-321,002
-315,8
-310,489
-305,173
-299,923
-294,794
-289,836
-285,095
-280,614
-276,41
-272,485
-268,836
-265,462
-262,364
-259,53
-256,929
-254,508
-252,204
-249,967
-247,757
-245,545
-243,305
-241,011
-238,639
-236,171
-233,6
-230,915
-228,101
-225,14
-222,007
-218,682
-215,151
-211,406
-207,438
-203,234
-198,779
-194,054
-189,049
-183,761
-178,19
-172,334
-166,198
-159,791
-153,135
-146,265
-139,211
-132,002
-124,66
-117,2
-109,65
-102,042
-94,415
-86,806
-79,235
-71,711
-64,239
-56,819
-49,432
-42,048
-34,608
-27,043
-19,308
-11,377
-3,24
5,098
13,637
22,382
31,333
40,473
49,769
59,165
68,598
77,985
87,197
96,07
104,401
111,974
118,619
124,193
128,569
131,637
133,299
133,465
132,075
129,093
124,485
118,248
110,403
101,005
90,189
78,143
65,106
51,323
37,018
22,399
7,683
-6,914
-21,201
-35,009
-48,197
-60,642
-72,195
-82,724
-92,131
-100,353
-107,398
-113,322
-118,209
-122,151
-125,247
-127,604
-129,346
-130,618
-131,524
-132,146
-132,548
-132,79
-132,964
-133,157
-133,432
-133,822
-134,332
-134,946
-135,642
-136,401
-137,176
-137,913
-138,548
-138,998
-139,217
-139,183
-138,878
-138,293
-137,401
-136,182
-134,632
-132,766
-130,601
-128,158
-125,454
-122,509
-119,359
-116,049
-112,625
-109,143
-105,639
-102,14
-98,672
-95,257
-91,915
-88,663
-85,513
-82,465
-79,524
-76,699
-73,994
-71,42
-68,975
-66,657
-64,461
-62,384
-60,421
-58,57
-56,828
-55,189
-53,653
-52,218
-50,881
-49,644
-48,503
-47,454
-46,492
-45,611
-44,806
-44,069
-43,395
-42,776
-42,205
-41,677
-41,186
-40,726
-40,293
-39,88
-39,483
-39,097
-38,718
-38,34
-37,959
-37,572
-37,175
-36,765
-36,34
-35,896
-35,433
-34,946
-34,434
-33,896
-33,329
-32,731
-32,1
-31,436
-30,737
-30,004
-29,235
-28,43
-27,59
-26,715
-25,806
-24,862
-23,884
-22,873
-21,829
-20,752
-19,643
-18,503
-17,331
-16,129
-14,898
-13,636
-12,346
-11,026
-9,678
-8,302
-6,897
-5,464
-4,004
-2,516
-1
0,543
2,113
3,711
5,338
6,995
8,682
10,401
12,153
13,939
15,761
17,619
19,517
21,454
23,432
25,453
27,52
29,634
31,797
34,012
36,28
38,604
40,986
43,427
45,93
48,496
51,126
53,823
56,587
59,42
62,324
65,299
68,345
71,462
74,648
77,902
81,221
84,603
88,042
91,535
95,078
98,664
102,289
105,947
109,63
113,331
117,043
120,756
124,457
128,135
131,778
135,37
138,9
142,351
145,712
148,969
152,113
155,132
158,015
160,751
163,326
165,73
167,952
169,983
171,817
173,445
174,864
176,072
177,076
177,881
178,488
178,893
179,084
179,051
178,792
178,307
177,599
176,674
175,54
174,222
172,759
171,192
169,563
167,907
166,246
164,611
163,048
161,612
160,375
159,402
158,73
158,392
158,417
158,814
159,579
160,681
162,028
163,507
165,012
166,419
167,61
168,478
168,859
168,524
167,29
165,037
161,787
157,778
153,299
148,641
144,218
140,539
138,052
137,115
137,661
138,951
140,076
140,079
137,926
132,848
124,364
112,227
97,126
81,115
66,801
57,299
56,025
65,821
89,266
128,689
185
257,111
342,91
439,006
540,591
642,797
739,257
821,994
885,363
925,865
941,981
935,524
906,146
851,712
771,035
662,161
527,768
373,712
207,516
42,186
-110,037
-236,427
-324,506
-371,198
-376,54
-344,24
-286,748
-214,64
-141,119
-83,166
-46,997
-33,769
-38,179
-45,529
-47,902
-43,087
-32,736
-24,586
-21,951
-23,646
-27,18
-28,176
-24,804
-17,81
-8,09
3,111
14,834
26,606
37,539
46,591
53,289
57,523
59,438
59,437
57,894
55,15
51,697
48,064
44,595
41,53
39,041
37,202
36,094
35,782
36,258
37,488
39,45
42,114
45,442
49,373
53,813
58,655
63,798
69,15
74,623
80,116
85,516
90,722
95,671
100,327
104,676
108,711
112,425
115,828
118,95
121,833
124,525
127,065
129,486
131,825
134,125
136,434
138,808
141,292
143,92
146,717
149,709
152,918
156,365
160,065
164,022
168,236
172,714
177,462
182,492
187,812
193,423
199,316
205,479
211,899
218,556
225,427
232,478
239,665
246,95
254,294
261,663
269,028
276,35
283,593
290,722
297,7
304,499
311,109
317,525
323,746
329,793
335,679
341,428
347,088
352,689
358,254
363,8
369,326
374,838
380,34
385,823
391,27
396,642
401,861
406,837
411,466
415,612
419,158
421,978
423,914
424,835
424,628
423,186
420,423
416,253
410,581
403,333
394,474
384,005
371,989
358,525
343,734
327,786
310,842
293,077
274,709
255,936
236,949
217,943
199,112
180,66
162,831
145,851
129,895
115,103
101,553
89,283
78,314
68,618
60,159
52,881
46,696
41,522
37,281
33,875
31,193
29,098
27,407
25,941
24,566
23,172
21,683
20,05
18,23
16,207
13,987
11,584
9,024
6,326
3,503
0,58
-2,402
-5,385
-8,282
-11,016
-13,536
-15,804
-17,798
-19,509
-20,929
-22,066
-22,944
-23,594
-24,041
-24,306
-24,405
-24,357
-24,192
-23,943
-23,654
-23,359
-23,081
-22,84
-22,649
-22,519
-22,459
-22,467
-22,537
-22,659
-22,83
-23,046
-23,307
-23,611
-23,95
-24,32
-24,712
-25,124
-25,552
-25,993
-26,443
-26,901
-27,366
-27,838
-28,319
-28,811
-29,314
-29,828
-30,352
-30,885
-31,428
-31,982
-32,545
-33,118
-33,701
-34,295
-34,902
-35,523
-36,158
-36,81
-37,478
-38,164
-38,871
-39,599
-40,35
-41,126
-41,929
-42,76
-43,62
-44,511
-45,432
-46,385
-47,37
-48,386
-49,433
-50,51
-51,616
-52,75
-53,911
-55,097
-56,305
-57,534
-58,781
-60,042
-61,317
-62,6
-63,891
-65,184
-66,478
-67,768
-69,053
-70,328
-71,591
-72,839
-74,069
-75,278
-76,463
-77,62
-78,747
-79,842
-80,902
-81,925
-82,909
-83,853
-84,756
-85,617
-86,435
-87,212
-87,947
-88,641
-89,295
-89,911
-90,491
-91,037
-91,55
-92,036
-92,495
-92,931
-93,348
-93,748
-94,135
-94,512
-94,882
-95,247
-95,612
-95,978
-96,349
-96,728
-97,118
-97,522
-97,942
-98,382
-98,844
-99,33
-99,841
-100,381
-100,949
-101,547
-102,176
-102,836
-103,527
-104,249
-105
-105,781
-106,588
-107,422
-108,278
-109,155
-110,051
-110,963
-111,889
-112,825
-113,771
-114,722
-115,678
-116,636
-117,594
-118,551
-119,504
-120,451
-121,392
-122,324
-123,247
-124,158
-125,057
-125,943
-126,815
-127,673
-128,515
-129,343
-130,156
-130,955
-131,739
-132,511
-133,271
-134,021
-134,762
-135,497
-136,228
-136,956
-137,684
-138,415
-139,15
-139,891
-140,639
-141,396
-142,162
-142,94
-143,728
-144,528
-145,34
-146,163
-146,996
-147,84
-148,692
-149,553
-150,42
-151,292
-152,167
-153,044
-153,92
-154,794
-155,663
-156,524
-157,376
-158,214
-159,035
-159,837
-160,614
-161,363
-162,08
-162,76
-163,398
-163,992
-164,537
-165,028
-165,464
-165,84
-166,153
-166,401
-166,58
-166,69
-166,727
-166,691
-166,579
-166,392
-166,128
-165,788
-165,372
-164,879
-164,311
-163,669
-162,953
-162,166
-161,307
-160,38
-159,387
-158,332
-157,218
-156,052
-154,84
-153,589
-152,311
-151,014
-149,708
-148,404
-147,111
-145,838
-144,596
-143,396
-142,248
-141,163
-140,15
-139,22
-138,386
-137,658
-137,045
-136,554
-136,187
-135,946
-135,831
-135,845
-135,99
-136,269
-136,686
-137,244
-137,942
-138,78
-139,759
-140,87
-142,099
-143,422
-144,805
-146,22
-147,641
-149,039
-150,392
-151,667
-152,818
-153,808
-154,597
-155,158
-155,488
-155,562
-155,343
-154,808
-153,951
-152,807
-151,493
-150,075
-148,557
-147,033
-145,624
-144,571
-144,283
-144,961
-146,596
-149,221
-152,865
-157,438
-162,799
-168,317
-172,815
-175,504
-175,981
-173,979
-169,511
-162,673
-153,642
-143,466
-134,209
-127,657
-125,131
-127,689
-134,753
-144,464
-155,268
-164,455
-171,509
-179,634
-188,742
-196,142
-192,787
-162,221
-95,296
8,175
138,939
277,71
410,09
528,882
629,996
713,129
776,978
818,388
835,577
830,365
803,366
752,182
675,494
567,864
426,758
260,617
82,151
-88,036
-226,387
-320,244
-366,701
-372,69
-352,083
-314,717
-266,614
-211,759
-154,577
-104,485
-68,924
-51,562
-50,615
-56,532
-62,346
-64,926
-64,435
-65,862
-71,538
-80,503
-90,505
-97,846
-100,924
-100,242
-96,616
-91,172
-84,631
-77,386
-70,311
-64,368
-60,05
-57,478
-56,442
-56,566
-57,555
-59,144
-60,931
-62,457
-63,434
-63,742
-63,38
-62,441
-60,988
-59,052
-56,691
-53,992
-51,021
-47,832
-44,468
-40,949
-37,327
-33,668
-30,038
-26,502
-23,105
-19,868
-16,808
-13,932
-11,234
-8,703
-6,328
-4,085
-1,959
0,068
2,014
3,897
5,737
7,559
9,387
11,247
13,163
15,156
17,245
19,447
21,777
24,252
26,888
29,701
32,703
35,909
39,336
43,004
46,938
51,154
55,661
60,461
65,552
70,925
76,568
82,456
88,551
94,817
101,219
107,733
114,342
121,023
127,745
134,473
141,164
147,791
154,348
160,829
167,233
173,575
179,883
186,213
192,654
199,27
206,099
213,156
220,425
227,902
235,586
243,466
251,525
259,723
267,988
276,257
284,455
292,461
300,131
307,264
313,615
318,992
323,242
326,244
327,917
328,168
326,911
324,09
319,662
313,602
305,912
296,583
285,634
273,163
259,31
244,284
228,345
211,703
194,545
177,053
159,383
141,704
124,192
106,991
90,251
74,142
58,824
44,47
31,222
19,139
8,246
-1,483
-10,115
-17,693
-24,258
-29,875
-34,598
-38,482
-41,607
-44,035
-45,853
-47,199
-48,205
-49,009
-49,73
-50,432
-51,162
-51,954
-52,814
-53,75
-54,764
-55,838
-56,965
-58,146
-59,368
-60,618
-61,865
-63,042
-64,092
-64,966
-65,624
-66,054
-66,25
-66,206
-65,935
-65,459
-64,803
-64,001
-63,077
-62,046
-60,929
-59,752
-58,545
-57,351
-56,206
-55,132
-54,151
-53,276
-52,517
-51,88
-51,367
-50,965
-50,667
-50,462
-50,343
-50,307
-50,347
-50,453
-50,615
-50,823
-51,066
-51,338
-51,631
-51,938
-52,25
-52,562
-52,87
-53,172
-53,463
-53,739
-53,994
-54,224
-54,424
-54,589
-54,715
-54,797
-54,833
-54,819
-54,754
-54,638
-54,471
-54,252
-53,983
-53,664
-53,297
-52,886
-52,432
-51,939
-51,409
-50,846
-50,253
-49,633
-48,99
-48,326
-47,644
-46,947
-46,239
-45,521
-44,797
-44,069
-43,34
-42,614
-41,893
-41,181
-40,48
-39,794
-39,125
-38,476
-37,851
-37,251
-36,678
-36,134
-35,622
-35,141
-34,693
-34,279
-33,899
-33,555
-33,245
-32,971
-32,733
-32,531
-32,366
-32,236
-32,143
-32,086
-32,067
-32,084
-32,139
-32,232
-32,362
-32,529
-32,733
-32,974
-33,249
-33,558
-33,9
-34,272
-34,672
-35,098
-35,547
-36,018
-36,506
-37,01
-37,527
-38,053
-38,586
-39,124
-39,662
-40,198
-40,729
-41,252
-41,764
-42,261
-42,74
-43,197
-43,63
-44,035
-44,408
-44,745
-45,042
-45,297
-45,504
-45,662
-45,766
-45,813
-45,803
-45,731
-45,597
-45,399
-45,137
-44,81
-44,418
-43,961
-43,44
-42,856
-42,209
-41,501
-40,734
-39,91
-39,03
-38,097
-37,114
-36,082
-35,005
-33,885
-32,727
-31,532
-30,304
-29,048
-27,767
-26,465
-25,148
-23,82
-22,486
-21,15
-19,817
-18,492
-17,18
-15,884
-14,609
-13,358
-12,134
-10,941
-9,78
-8,655
-7,566
-6,517
-5,507
-4,539
-3,612
-2,727
-1,885
-1,086
-0,329
0,386
1,058
1,689
2,279
2,828
3,337
3,808
4,241
4,639
5,003
5,335
5,638
5,915
6,168
6,4
6,614
6,811
6,995
7,168
7,332
7,489
7,641
7,789
7,935
8,079
8,223
8,367
8,511
8,655
8,799
8,943
9,088
9,232
9,376
9,521
9,666
9,813
9,96
10,11
10,262
10,415
10,572
10,73
10,891
11,053
11,217
11,383
11,549
11,717
11,884
12,052
12,22
12,388
12,555
12,722
12,889
13,056
13,224
13,395
13,567
13,744
13,925
14,112
14,305
14,505
14,711
14,925
15,145
15,37
15,6
15,835
16,071
16,308
16,545
16,779
17,009
17,232
17,447
17,651
17,843
18,02
18,18
18,321
18,441
18,539
18,612
18,658
18,676
18,663
18,617
18,536
18,418
18,26
18,062
17,822
17,538
17,209
16,836
16,418
15,955
15,449
14,9
14,311
13,683
13,02
12,325
11,601
10,854
10,087
9,306
8,516
7,723
6,932
6,147
5,376
4,624
3,896
3,199
2,537
1,918
1,346
0,828
0,37
-0,023
-0,346
-0,594
-0,762
-0,846
-0,843
-0,749
-0,562
-0,281
0,096
0,569
1,138
1,802
2,556
3,399
4,323
5,321
6,384
7,503
8,666
9,86
11,074
12,294
13,507
14,704
15,871
16,994
18,06
19,055
19,964
20,773
21,467
22,029
22,448
22,712
22,815
22,754
22,523
22,119
21,533
20,75
19,761
18,564
17,153
15,528
13,695
11,665
9,465
7,136
4,715
2,242
-0,251
-2,74
-5,194
-7,575
-9,839
-11,92
-13,77
-15,36
-16,658
-17,651
-18,326
-18,67
-18,72
-18,571
-18,313
-18,05
-17,85
-17,701
-17,731
-18,184
-19,275
-21,258
-24,251
-28,179
-33,081
-39,06
-45,793
-52,596
-58,668
-63,014
-65,035
-64,64
-61,627
-55,891
-48,081
-39,534
-31,792
-26,571
-25,142
-27,833
-34,643
-45,315
-57,33
-67,062
-72,018
-68,51
-55,049
-31,267
7,799
64,972
142,434
241,825
356,101
477,46
597,446
704,985
795,011
864,266
911,529
939,001
945,948
929,989
885,882
808,407
696,734
553,154
387,923
215,98
52,906
-83,06
-180,379
-237,4
-257,867
-252,858
-232,47
-199,495
-156,24
-105,134
-51,981
-7,484
21,018
32,59
32,829
29,833
28,755
30,027
29,847
25,318
16,374
4,973
-5,314
-12,251
-15,643
-15,958
-14,069
-10,701
-6,263
-1,373
3,158
6,589
8,568
9,127
8,474
6,933
4,821
2,442
0,16
-1,658
-2,82
-3,279
-3,054
-2,243
-0,93
0,833
2,967
5,382
8,016
10,813
13,718
16,687
19,656
22,548
25,309
27,9
30,295
32,482
34,458
36,225
37,796
39,194
40,434
41,531
42,498
43,349
44,106
44,794
45,437
46,062
46,692
47,352
48,065
48,853
49,734
50,726
51,842
53,1
54,517
56,114
57,91
59,921
62,166
64,663
67,434
70,505
73,889
77,592
81,615
85,952
90,594
95,527
100,727
106,156
111,781
117,573
123,511
129,582
135,763
142,022
148,32
154,615
160,883
167,114
173,299
179,431
185,519
191,582
197,666
203,84
210,143
216,586
223,154
229,81
236,529
243,297
250,097
256,898
263,648
270,279
276,734
282,955
288,852
294,301
299,123
303,124
306,159
308,132
308,985
308,685
307,184
304,427
300,385
295,05
288,429
280,529
271,331
260,82
249,039
236,095
222,172
207,467
192,135
176,295
160,047
143,493
126,765
109,996
93,295
76,765
60,527
44,734
29,585
15,28
1,949
-10,346
-21,604
-31,84
-41,042
-49,193
-56,289
-62,349
-67,417
-71,54
-74,746
-77,082
-78,632
-79,528
-79,955
-80,093
-80,069
-79,97
-79,847
-79,746
-79,723
-79,822
-80,061
-80,445
-80,969
-81,637
-82,465
-83,454
-84,573
-85,764
-86,938
-88,018
-88,956
-89,725
-90,307
-90,694
-90,875
-90,857
-90,662
-90,32
-89,852
-89,275
-88,596
-87,828
-87
-86,144
-85,303
-84,509
-83,783
-83,141
-82,593
-82,147
-81,807
-81,568
-81,417
-81,341
-81,332
-81,384
-81,494
-81,655
-81,86
-82,099
-82,365
-82,649
-82,948
-83,255
-83,566
-83,876
-84,184
-84,488
-84,79
-85,089
-85,385
-85,677
-85,963
-86,243
-86,516
-86,782
-87,04
-87,289
-87,532
-87,767
-87,996
-88,221
-88,441
-88,659
-88,876
-89,093
-89,311
-89,532
-89,757
-89,986
-90,222
-90,464
-90,714
-90,971
-91,235
-91,508
-91,788
-92,075
-92,368
-92,668
-92,974
-93,283
-93,596
-93,912
-94,228
-94,545
-94,859
-95,171
-95,478
-95,78
-96,076
-96,365
-96,645
-96,917
-97,179
-97,432
-97,675
-97,909
-98,133
-98,348
-98,556
-98,756
-98,95
-99,139
-99,325
-99,508
-99,691
-99,874
-100,061
-100,252
-100,45
-100,655
-100,87
-101,097
-101,337
-101,592
-101,863
-102,151
-102,459
-102,787
-103,136
-103,507
-103,901
-104,318
-104,758
-105,221
-105,707
-106,214
-106,742
-107,29
-107,856
-108,439
-109,037
-109,647
-110,269
-110,899
-111,534
-112,173
-112,812
-113,448
-114,079
-114,701
-115,311
-115,908
-116,488
-117,049
-117,588
-118,104
-118,593
-119,055
-119,488
-119,889
-120,258
-120,594
-120,896
-121,162
-121,394
-121,591
-121,752
-121,878
-121,969
-122,026
-122,048
-122,038
-121,994
-121,919
-121,813
-121,678
-121,516
-121,327
-121,114
-120,879
-120,624
-120,351
-120,061
-119,757
-119,44
-119,112
-118,776
-118,431
-118,08
-117,724
-117,363
-116,999
-116,631
-116,26
-115,887
-115,511
-115,132
-114,75
-114,364
-113,976
-113,585
-113,191
-112,795
-112,396
-111,997
-111,596
-111,194
-110,793
-110,392
-109,991
-109,591
-109,193
-108,796
-108,401
-108,009
-107,62
-107,235
-106,854
-106,479
-106,11
-105,749
-105,397
-105,057
-104,73
-104,42
-104,127
-103,857
-103,61
-103,391
-103,201
-103,044
-102,92
-102,833
-102,782
-102,771
-102,798
-102,864
-102,97
-103,116
-103,3
-103,522
-103,781
-104,075
-104,402
-104,761
-105,149
-105,563
-106
-106,457
-106,931
-107,419
-107,915
-108,415
-108,915
-109,409
-109,891
-110,354
-110,791
-111,195
-111,559
-111,876
-112,141
-112,346
-112,487
-112,556
-112,551
-112,465
-112,296
-112,039
-111,693
-111,256
-110,727
-110,106
-109,397
-108,601
-107,722
-106,767
-105,742
-104,654
-103,511
-102,325
-101,107
-99,87
-98,628
-97,394
-96,182
-95,005
-93,875
-92,808
-91,813
-90,902
-90,085
-89,372
-88,776
-88,307
-87,972
-87,768
-87,692
-87,739
-87,904
-88,192
-88,603
-89,138
-89,798
-90,586
-91,504
-92,556
-93,733
-95,008
-96,34
-97,69
-99,027
-100,343
-101,638
-102,904
-104,111
-105,213
-106,153
-106,878
-107,35
-107,5
-107,233
-106,547
-105,521
-104,346
-103,34
-102,76
-102,753
-103,501
-105,135
-107,51
-110,344
-113,168
-115,247
-116,098
-115,398
-112,677
-107,766
-100,983
-92,854
-84,253
-76,298
-69,668
-65,153
-63,963
-66,696
-73,585
-84,567
-98,851
-115,839
-134,121
-150,302
-160,95
-163,213
-157,493
-148,174
-136,521
-119,709
-88,819
-30,029
62,316
185,583
328,525
472,256
603,232
712,539
796,901
859,21
900,747
922,235
921,195
892,518
833,151
741,296
619,904
475,187
315,003
151,772
-0,737
-128,243
-219,355
-271,498
-288,973
-279,813
-251,553
-209,789
-159,143
-106,428
-62,62
-34,859
-25,486
-31,041
-40,759
-47,533
-49,183
-46,797
-45,449
-47,515
-51,906
-56,326
-57,989
-56,011
-51,063
-44,121
-36,294
-28,188
-20,349
-13,762
-9,016
-6,305
-5,624
-6,58
-8,747
-11,841
-15,443
-19,03
-22,248
-24,869
-26,778
-28,026
-28,651
-28,649
-28,056
-26,906
-25,203
-22,986
-20,305
-17,216
-13,829
-10,257
-6,603
-2,976
0,527
3,839
6,911
9,723
12,28
14,585
16,64
18,442
19,98
21,259
22,299
23,127
23,79
24,33
24,786
25,204
25,628
26,093
26,628
27,253
27,977
28,815
29,787
30,91
32,209
33,709
35,429
37,388
39,603
42,087
44,852
47,912
51,275
54,955
58,957
63,28
67,924
72,881
78,137
83,671
89,454
95,446
101,61
107,91
114,312
120,789
127,305
133,818
140,29
146,681
152,963
159,122
165,151
171,046
176,823
182,506
188,129
193,743
199,38
205,054
210,775
216,537
222,339
228,191
234,087
240,016
245,943
251,81
257,535
263,026
268,155
272,771
276,719
279,828
281,953
282,98
282,8
281,328
278,472
274,137
268,25
260,754
251,628
240,897
228,624
214,907
199,894
183,771
166,741
149,026
130,835
112,36
93,797
75,338
57,186
39,566
22,683
6,734
-8,119
-21,764
-34,123
-45,154
-54,865
-63,3
-70,523
-76,624
-81,688
-85,797
-89,048
-91,546
-93,42
-94,83
-95,922
-96,842
-97,711
-98,619
-99,636
-100,814
-102,175
-103,716
-105,424
-107,269
-109,225
-111,275
-113,386
-115,521
-117,622
-119,616
-121,438
-123,034
-124,36
-125,393
-126,114
-126,515
-126,603
-126,399
-125,928
-125,22
-124,303
-123,195
-121,924
-120,521
-119,022
-117,471
-115,903
-114,345
-112,82
-111,345
-109,931
-108,591
-107,327
-106,134
-105,009
-103,948
-102,948
-102,009
-101,13
-100,306
-99,532
-98,802
-98,112
-97,46
-96,844
-96,262
-95,712
-95,192
-94,704
-94,248
-93,825
-93,434
-93,074
-92,742
-92,436
-92,154
-91,893
-91,651
-91,424
-91,211
-91,01
-90,82
-90,638
-90,465
-90,298
-90,138
-89,984
-89,835
-89,692
-89,555
-89,423
-89,298
-89,179
-89,067
-88,961
-88,861
-88,767
-88,678
-88,594
-88,516
-88,441
-88,37
-88,302
-88,236
-88,173
-88,112
-88,053
-87,995
-87,94
-87,886
-87,835
-87,786
-87,741
-87,699
-87,661
-87,626
-87,596
-87,57
-87,547
-87,529
-87,514
-87,503
-87,496
-87,492
-87,492
-87,496
-87,503
-87,515
-87,531
-87,552
-87,578
-87,61
-87,649
-87,695
-87,75
-87,813
-87,887
-87,971
-88,066
-88,174
-88,295
-88,428
-88,573
-88,732
-88,902
-89,084
-89,277
-89,481
-89,695
-89,917
-90,148
-90,386
-90,631
-90,881
-91,136
-91,395
-91,657
-91,921
-92,185
-92,449
-92,711
-92,971
-93,228
-93,48
-93,726
-93,964
-94,195
-94,414
-94,623
-94,818
-95
-95,165
-95,315
-95,447
-95,561
-95,656
-95,734
-95,792
-95,832
-95,854
-95,857
-95,843
-95,812
-95,764
-95,7
-95,621
-95,527
-95,418
-95,296
-95,161
-95,013
-94,852
-94,679
-94,494
-94,298
-94,089
-93,869
-93,638
-93,396
-93,144
-92,881
-92,609
-92,328
-92,038
-91,74
-91,434
-91,12
-90,799
-90,469
-90,132
-89,786
-89,431
-89,068
-88,695
-88,313
-87,92
-87,517
-87,103
-86,678
-86,242
-85,796
-85,339
-84,872
-84,396
-83,911
-83,419
-82,92
-82,417
-81,91
-81,401
-80,892
-80,382
-79,873
-79,367
-78,863
-78,362
-77,864
-77,371
-76,881
-76,397
-75,918
-75,444
-74,976
-74,513
-74,057
-73,606
-73,161
-72,721
-72,286
-71,853
-71,422
-70,992
-70,56
-70,125
-69,685
-69,237
-68,777
-68,303
-67,81
-67,295
-66,753
-66,18
-65,572
-64,925
-64,235
-63,501
-62,719
-61,885
-60,999
-60,056
-59,055
-57,995
-56,874
-55,691
-54,445
-53,137
-51,767
-50,337
-48,85
-47,31
-45,722
-44,09
-42,421
-40,723
-39,008
-37,285
-35,566
-33,861
-32,178
-30,528
-28,919
-27,362
-25,868
-24,441
-23,088
-21,818
-20,64
-19,566
-18,603
-17,751
-17,004
-16,354
-15,797
-15,339
-14,989
-14,758
-14,648
-14,661
-14,806
-15,09
-15,515
-16,066
-16,704
-17,374
-18,033
-18,652
-19,226
-19,762
-20,236
-20,59
-20,748
-20,626
-20,171
-19,38
-18,207
-16,576
-14,496
-12,036
-9,427
-7,071
-5,199
-3,852
-3,052
-2,751
-2,88
-3,495
-4,345
-4,801
-4,555
-3,479
-1,593
0,675
3,054
5,673
8,259
10,145
10,949
10,063
6,998
2,121
-4,359
-12,726
-22,821
-34,07
-45,906
-55,974
-60,44
-57,816
-47,283
-28,742
-5,043
26,039
70,923
134,023
220,854
330,228
452,016
576,783
693,524
792,974
872,381
929,872
966,586
985,056
985,238
965,335
918,179
837,13
719,174
564,853
386,724
202,798
32,402
-103,096
-193,026
-237,05
-241,007
-216,747
-172,82
-114,775
-48,076
19,608
75,58
110,991
122,94
116,216
104,002
94,911
91,466
92,006
90,363
84,152
75,44
67,191
62,704
63,023
67,189
74,068
82,506
91,667
100,693
108,517
114,547
118,631
120,898
121,732
121,487
120,454
119,086
117,916
117,26
117,269
117,966
119,25
121,069
123,408
126,2
129,355
132,805
136,486
140,363
144,417
148,6
152,838
157,058
161,176
165,142
168,927
172,511
175,884
179,042
181,988
184,735
187,309
189,728
192,01
194,172
196,232
198,214
200,146
202,056
203,973
205,921
207,92
209,992
212,158
214,433
216,835
219,378
222,074
224,94
227,995
231,253
234,728
238,434
242,385
246,599
251,094
255,882
260,963
266,334
271,989
277,917
284,101
290,513
297,115
303,87
310,749
317,727
324,785
331,897
339,026
346,135
353,185
360,15
367,022
373,791
380,452
387,017
393,514
399,992
406,52
413,139
419,867
426,702
433,635
440,66
447,774
454,974
462,237
469,525
476,787
483,962
490,978
497,726
504,063
509,807
514,767
518,788
521,756
523,581
524,179
523,468
521,373
517,825
512,793
506,259
498,205
488,645
477,626
465,24
451,645
437,043
421,644
405,641
389,203
372,486
355,663
338,91
322,402
306,322
290,822
276,049
262,169
249,311
237,563
226,981
217,555
209,24
201,988
195,74
190,44
186,034
182,438
179,56
177,299
175,53
174,144
173,037
172,081
171,179
170,259
169,262
168,166
166,974
165,682
164,299
162,844
161,324
159,77
158,219
156,714
155,316
154,077
153,036
152,238
151,712
151,473
151,533
151,884
152,504
153,376
154,478
155,78
157,264
158,899
160,653
162,488
164,363
166,24
168,092
169,893
171,623
173,269
174,818
176,265
177,614
178,865
180,018
181,077
182,04
182,908
183,687
184,382
184,998
185,543
186,021
186,435
186,789
187,087
187,333
187,529
187,675
187,772
187,823
187,833
187,806
187,746
187,656
187,54
187,403
187,247
187,076
186,891
186,694
186,486
186,267
186,038
185,8
185,552
185,295
185,027
184,749
184,458
184,153
183,833
183,496
183,14
182,762
182,361
181,935
181,48
180,995
180,477
179,924
179,333
178,702
178,029
177,311
176,546
175,733
174,87
173,955
172,988
171,968
170,896
169,772
168,596
167,37
166,096
164,773
163,405
161,992
160,537
159,042
157,508
155,937
154,333
152,697
151,033
149,342
147,628
145,893
144,141
142,375
140,597
138,81
137,017
135,221
133,424
131,63
129,84
128,057
126,283
124,517
122,763
121,019
119,286
117,564
115,852
114,147
112,45
110,758
109,07
107,383
105,695
104,005
102,309
100,606
98,891
97,164
95,42
93,656
91,87
90,059
88,218
86,345
84,437
82,489
80,5
78,464
76,378
74,24
72,044
69,789
67,472
65,088
62,637
60,116
57,524
54,86
52,123
49,313
46,431
43,476
40,45
37,353
34,186
30,951
27,649
24,282
20,852
17,361
13,812
10,207
6,548
2,838
-0,921
-4,726
-8,575
-12,464
-16,391
-20,351
-24,342
-28,359
-32,399
-36,457
-40,53
-44,614
-48,705
-52,8
-56,895
-60,987
-65,073
-69,151
-73,218
-77,271
-81,309
-85,329
-89,33
-93,311
-97,269
-101,205
-105,117
-109,004
-112,866
-116,702
-120,511
-124,293
-128,046
-131,769
-135,463
-139,126
-142,758
-146,359
-149,929
-153,468
-156,978
-160,458
-163,91
-167,334
-170,731
-174,103
-177,449
-180,772
-184,073
-187,351
-190,609
-193,847
-197,067
-200,269
-203,453
-206,619
-209,769
-212,901
-216,016
-219,113
-222,192
-225,252
-228,293
-231,314
-234,316
-237,298
-240,259
-243,199
-246,118
-249,014
-251,886
-254,734
-257,555
-260,35
-263,115
-265,85
-268,552
-271,221
-273,853
-276,446
-278,998
-281,507
-283,97
-286,384
-288,746
-291,054
-293,306
-295,498
-297,63
-299,698
-301,702
-303,64
-305,51
-307,311
-309,041
-310,7
-312,287
-313,8
-315,238
-316,603
-317,892
-319,108
-320,249
-321,317
-322,312
-323,236
-324,089
-324,873
-325,591
-326,243
-326,833
-327,364
-327,838
-328,261
-328,635
-328,966
-329,258
-329,517
-329,747
-329,954
-330,143
-330,321
-330,492
-330,665
-330,844
-331,036
-331,249
-331,488
-331,761
-332,074
-332,433
-332,846
-333,317
-333,853
-334,461
-335,146
-335,913
-336,768
-337,716
-338,763
-339,912
-341,169
-342,537
-344,019
-345,617
-347,335
-349,173
-351,132
-353,212
-355,413
-357,734
-360,174
-362,731
-365,4
-368,179
-371,062
-374,043
-377,117
-380,276
-383,512
-386,817
-390,182
-393,6
-397,059
-400,552
-404,067
-407,596
-411,126
-414,649
-418,152
-421,625
-425,056
-428,435
-431,752
-434,995
-438,155
-441,221
-444,185
-447,041
-449,781
-452,401
-454,894
-457,258
-459,491
-461,594
-463,565
-465,408
-467,122
-468,713
-470,186
-471,551
-472,817
-473,995
-475,092
-476,118
-477,088
-478,013
-478,904
-479,771
-480,613
-481,439
-482,265
-483,112
-484,007
-484,974
-486,029
-487,19
-488,482
-489,927
-491,545
-493,347
-495,324
-497,471
-499,791
-502,3
-505,019
-507,95
-511,06
-514,291
-517,576
-520,845
-524,04
-527,091
-529,895
-532,367
-534,433
-536,047
-537,221
-537,965
-538,273
-538,128
-537,508
-536,425
-534,967
-533,287
-531,553
-529,954
-528,671
-527,901
-527,917
-529,007
-531,389
-535,155
-540,231
-546,378
-553,332
-560,883
-568,742
-576,473
-583,678
-590,037
-595,457
-600,301
-605,113
-610,266
-616,174
-623,291
-631,718
-641,383
-651,868
-661,836
-669,356
-672,418
-668,651
-655,62
-631,497
-594,607
-543,616
-478,36
-399,814
-309,778
-211,013
-107,255
-2,63
98,277
189,257
264,25
319,49
350,982
357,391
340,195
298,361
233,009
145,385
33,886
-99,988
-252,574
-415,023
-571,682
-704,301
-795,741
-839,106
-836,075
-794,999
-732,441
-661,052
-592,418
-539,537
-505,101
-488,937
-487,316
-488,732
-487,829
-483,683
-477,327
-474,307
-476,383
-481,439
-486,652
-488,574
-485,956
-479,447
-469,974
-458,72
-446,642
-434,638
-423,939
-415,302
-408,927
-404,758
-402,389
-401,375
-401,353
-401,821
-402,181
-402,031
-401,159
-399,486
-397,065
-393,917
-390
-385,305
-379,858
-373,696
-366,877
-359,461
-351,514
-343,143
-334,472
-325,621
-316,708
-307,82
-299,016
-290,331
-281,791
-273,409
-265,206
-257,207
-249,425
-241,866
-234,523
-227,38
-220,407
-213,558
-206,79
-200,054
-193,306
-186,512
-179,647
-172,694
-165,64
-158,482
-151,208
-143,806
-136,262
-128,558
-120,681
-112,617
-104,354
-95,88
-87,189
-78,272
-69,126
-59,748
-50,133
-40,276
-30,173
-19,814
-9,198
1,669
12,777
24,108
35,641
47,351
59,201
71,147
83,147
95,16
107,149
119,084
130,928
142,645
154,2
165,555
176,683
187,575
198,227
208,636
218,819
228,789
238,567
248,2
257,716
267,133
276,466
285,711
294,873
303,958
312,959
321,862
330,632
339,199
347,484
355,396
362,818
369,638
375,739
380,973
385,22
388,379
390,354
391,068
390,437
388,382
384,84
379,789
373,24
365,251
355,915
345,344
333,692
321,125
307,821
293,988
279,818
265,501
251,227
237,194
223,616
210,704
198,658
187,634
177,744
169,066
161,641
155,482
150,562
146,836
144,235
142,675
142,076
142,343
143,37
145,026
147,15
149,587
152,188
154,831
157,428
159,903
162,201
164,289
166,158
167,811
169,267
170,543
171,649
172,611
173,463
174,258
175,072
175,967
176,998
178,204
179,609
181,228
183,073
185,136
187,4
189,841
192,433
195,153
197,988
200,913
203,903
206,922
209,931
212,896
215,795
218,607
221,318
223,919
226,402
228,768
231,026
233,18
235,239
237,206
239,084
240,876
242,588
244,228
245,802
247,318
248,778
250,185
251,544
252,856
254,124
255,347
256,522
257,649
258,729
259,762
260,75
261,693
262,592
263,448
264,265
265,042
265,781
266,483
267,148
267,776
268,369
268,926
269,449
269,938
270,395
270,819
271,212
271,577
271,914
272,225
272,512
272,778
273,026
273,259
273,481
273,695
273,905
274,115
274,33
274,553
274,79
275,044
275,318
275,617
275,945
276,304
276,697
277,127
277,597
278,107
278,662
279,261
279,907
280,6
281,342
282,131
282,968
283,852
284,781
285,753
286,767
287,82
288,908
290,028
291,176
292,347
293,536
294,739
295,949
297,16
298,366
299,562
300,74
301,894
303,018
304,105
305,151
306,149
307,094
307,981
308,805
309,561
310,246
310,855
311,385
311,834
312,198
312,475
312,665
312,765
312,775
312,695
312,526
312,267
311,921
311,488
310,971
310,372
309,693
308,939
308,112
307,217
306,258
305,239
304,165
303,039
301,868
300,654
299,404
298,119
296,806
295,467
294,107
292,729
291,336
289,932
288,519
287,1
285,677
284,253
282,827
281,403
279,981
278,561
277,144
275,73
274,32
272,913
271,508
270,105
268,703
267,3
265,895
264,488
263,075
261,656
260,229
258,792
257,344
255,884
254,41
252,922
251,418
249,899
248,362
246,809
245,239
243,652
242,049
240,43
238,796
237,148
235,489
233,819
232,141
230,456
228,768
227,078
225,39
223,705
222,027
220,359
218,702
217,062
215,44
213,839
212,261
210,711
209,189
207,697
206,239
204,814
203,424
202,069
200,752
199,471
198,227
197,02
195,85
194,715
193,614
192,547
191,511
190,503
189,522
188,564
187,626
186,705
185,797
184,898
184,003
183,109
182,21
181,302
180,38
179,439
178,475
177,483
176,459
175,398
174,298
173,156
171,969
170,735
169,451
168,117
166,732
165,295
163,804
162,261
160,666
159,018
157,32
155,574
153,78
151,943
150,065
148,151
146,204
144,229
142,232
140,217
138,191
136,161
134,133
132,115
130,115
128,139
126,196
124,292
122,437
120,634
118,892
117,214
115,607
114,074
112,618
111,244
109,952
108,746
107,626
106,593
105,647
104,787
104,012
103,319
102,703
102,158
101,675
101,247
100,863
100,512
100,183
99,864
99,541
99,207
98,85
98,461
98,026
97,533
96,968
96,32
95,577
94,73
93,772
92,695
91,495
90,175
88,738
87,184
85,508
83,694
81,726
79,596
77,297
74,829
72,199
69,412
66,491
63,472
60,398
57,312
54,254
51,252
48,342
45,568
42,988
40,68
38,719
37,165
36,069
35,456
35,334
35,686
36,467
37,604
38,997
40,52
42,031
43,388
44,449
45,096
45,155
44,351
42,489
39,501
35,521
30,954
26,221
21,65
17,721
15,076
14,176
15,189
17,659
20,433
22,442
22,781
20,382
14,293
4,021
-9,42
-22,938
-32,829
-36,31
-33,314
-25,134
-10,542
15,189
61,002
135,328
239,713
368,035
505,914
636,934
749,902
839,921
909,688
963,748
1001,153
1016,27
999,522
942,305
844,262
710,664
550,091
374,527
195,87
28,309
-110,907
-209,588
-262,709
-273,645
-255,266
-219,753
-176,985
-135,579
-98,379
-68,634
-47,536
-31,458
-18,901
-7,742
2,338
7,81
7,471
1,337
-9,491
-21,772
-33,268
-42,801
-49,361
-52,949
-53,962
-52,708
-49,753
-45,747
-41,306
-37,135
-34,002
-32,289
-31,984
-32,943
-34,836
-37,311
-40,096
-42,836
-45,132
-46,776
-47,695
-47,893
-47,478
-46,535
-45,105
-43,274
-41,136
-38,756
-36,205
-33,541
-30,799
-28,026
-25,283
-22,621
-20,096
-17,766
-15,652
-13,74
-12,048
-10,628
-9,512
-8,731
-8,276
-8,063
-8,052
-8,303
-8,722
-9,003
-9,055
-8,942
-8,602
-8,304
-7,503
-4,425
0,637
6,063
9,276
5,314
-5,681
-18,642
-28,589
-28,443
-17,482
-2,408
11,588
18,969
18,572
15,415
12,64
12,313
15,137
19,055
23,057
27,194
31,36
35,84
40,711
45,672
50,605
55,521
60,376
65,139
69,813
74,409
78,95
83,503
88,12
92,839
97,735
102,862
108,242
113,879
119,761
125,876
132,216
138,775
145,519
152,398
159,35
166,305
173,177
179,839
186,118
191,797
196,65
200,496
203,2
204,648
204,735
203,368
200,476
196,016
189,981
182,374
173,189
162,442
150,188
136,544
121,71
105,927
89,438
72,461
55,192
37,821
20,559
3,589
-12,949
-28,938
-44,29
-58,901
-72,633
-85,373
-97,057
-107,672
-117,275
-125,952
-133,773
-140,822
-147,186
-152,971
-158,308
-163,297
-167,989
-172,423
-176,629
-180,659
-184,604
-188,532
-192,474
-196,441
-200,413
-204,364
-208,283
-212,141
-215,885
-219,451
-222,761
-225,766
-228,451
-230,812
-232,844
-234,536
-235,862
-236,811
-237,397
-237,635
-237,542
-237,136
-236,429
-235,447
-234,235
-232,839
-231,312
-229,692
-228,003
-226,266
-224,503
-222,733
-220,976
-219,243
-217,536
-215,863
-214,231
-212,651
-211,132
-209,678
-208,288
-206,96
-205,69
-204,479
-203,325
-202,227
-201,184
-200,194
-199,258
-198,377
-197,552
-196,783
-196,068
-195,405
-194,789
-194,217
-193,686
-193,192
-192,73
-192,295
-191,885
-191,496
-191,126
-190,772
-190,432
-190,102
-189,782
-189,469
-189,161
-188,857
-188,554
-188,253
-187,951
-187,647
-187,343
-187,035
-186,725
-186,412
-186,095
-185,775
-185,45
-185,121
-184,789
-184,453
-184,115
-183,774
-183,434
-183,093
-182,755
-182,42
-182,09
-181,766
-181,449
-181,14
-180,84
-180,549
-180,267
-179,994
-179,732
-179,478
-179,234
-178,998
-178,771
-178,551
-178,339
-178,134
-177,935
-177,742
-177,555
-177,373
-177,196
-177,024
-176,856
-176,692
-176,53
-176,371
-176,212
-176,053
-175,893
-175,729
-175,561
-175,387
-175,205
-175,014
-174,812
-174,599
-174,373
-174,134
-173,88
-173,612
-173,329
-173,032
-172,722
-172,398
-172,062
-171,715
-171,359
-170,993
-170,62
-170,241
-169,857
-169,469
-169,077
-168,685
-168,292
-167,9
-167,51
-167,125
-166,745
-166,373
-166,011
-165,66
-165,322
-165
-164,696
-164,411
-164,146
-163,905
-163,686
-163,493
-163,324
-163,181
-163,063
-162,969
-162,898
-162,849
-162,82
-162,808
-162,811
-162,827
-162,853
-162,886
-162,924
-162,963
-163,002
-163,036
-163,065
-163,084
-163,092
-163,085
-163,061
-163,018
-162,952
-162,862
-162,745
-162,598
-162,42
-162,209
-161,963
-161,681
-161,362
-161,005
-160,61
-160,177
-159,706
-159,2
-158,659
-158,086
-157,482
-156,851
-156,196
-155,519
-154,824
-154,115
-153,395
-152,667
-151,935
-151,202
-150,471
-149,745
-149,028
-148,322
-147,63
-146,954
-146,297
-145,662
-145,05
-144,463
-143,902
-143,369
-142,865
-142,39
-141,944
-141,527
-141,139
-140,779
-140,445
-140,137
-139,852
-139,588
-139,343
-139,114
-138,897
-138,689
-138,487
-138,286
-138,082
-137,872
-137,651
-137,417
-137,163
-136,888
-136,587
-136,255
-135,89
-135,487
-135,043
-134,553
-134,014
-133,423
-132,777
-132,075
-131,314
-130,492
-129,61
-128,664
-127,655
-126,583
-125,448
-124,25
-122,99
-121,671
-120,293
-118,862
-117,382
-115,858
-114,298
-112,709
-111,099
-109,478
-107,855
-106,243
-104,653
-103,096
-101,578
-100,11
-98,702
-97,364
-96,106
-94,938
-93,864
-92,892
-92,028
-91,283
-90,665
-90,177
-89,811
-89,56
-89,421
-89,398
-89,507
-89,756
-90,146
-90,677
-91,349
-92,165
-93,126
-94,216
-95,397
-96,621
-97,837
-99,011
-100,129
-101,185
-102,163
-103,015
-103,66
-104,015
-104,029
-103,677
-102,953
-101,828
-100,24
-98,208
-95,893
-93,585
-91,597
-90,097
-89,05
-88,388
-88,213
-88,68
-89,767
-91,133
-92,208
-92,559
-92,187
-91,387
-90,166
-88,273
-85,599
-82,427
-79,548
-77,985
-78,305
-80,467
-84,655
-91,209
-100,161
-111,222
-123,229
-134,013
-141,311
-143,178
-137,262
-121,151
-92,745
-49,935
8,261
81,307
167,799
265,571
371,47
480,597
586,427
682,055
761,005
821,136
864,399
890,654
898,921
882,997
831,437
739,373
606,526
440,683
260,046
83,13
-71,068
-188,067
-263,138
-298,404
-302,693
-284,928
-250,221
-203,19
-147,239
-89,728
-43,235
-14,725
-5,698
-11,303
-19,201
-22,161
-18,938
-11,497
-5,814
-4,839
-7,799
-12,838
-17,328
-20,039
-20,947
-20,446
-19,176
-17,29
-14,824
-12,083
-9,228
-6,559
-4,579
-3,369
-2,811
-2,817
-3,13
-3,524
-3,906
-4,081
-3,775
-2,878
-1,358
0,762
3,353
6,33
9,654
13,254
17,044
20,95
24,89
28,8
32,641
36,365
39,93
43,308
46,474
49,414
52,132
54,634
56,939
59,066
61,029
62,843
64,525
66,091
67,563
68,965
70,319
71,647
72,97
74,309
75,684
77,115
78,621
80,22
81,927
83,758
85,731
87,865
90,179
92,694
95,425
98,387
101,592
105,057
108,797
112,831
117,169
121,811
126,756
131,994
137,513
143,293
149,305
155,506
161,858
168,324
174,874
181,488
188,138
194,79
201,407
207,942
214,365
220,665
226,833
232,867
238,783
244,606
250,387
256,205
262,114
268,148
274,331
280,649
287,101
293,691
300,415
307,271
314,244
321,276
328,301
335,24
341,969
348,348
354,197
359,289
363,439
366,496
368,319
368,818
367,9
365,464
361,429
355,714
348,25
339,027
328,068
315,42
301,203
285,565
268,703
250,878
232,326
213,267
193,92
174,471
155,11
136,056
117,521
99,731
82,917
67,249
52,861
39,855
28,272
18,124
9,384
1,968
-4,215
-9,254
-13,247
-16,274
-18,432
-19,852
-20,682
-21,098
-21,281
-21,371
-21,48
-21,699
-22,089
-22,697
-23,546
-24,623
-25,902
-27,361
-28,975
-30,731
-32,603
-34,542
-36,481
-38,336
-40,028
-41,502
-42,723
-43,664
-44,312
-44,659
-44,711
-44,497
-44,047
-43,392
-42,554
-41,553
-40,411
-39,163
-37,85
-36,519
-35,205
-33,937
-32,733
-31,611
-30,581
-29,65
-28,819
-28,077
-27,416
-26,829
-26,313
-25,866
-25,484
-25,161
-24,888
-24,658
-24,465
-24,307
-24,18
-24,079
-24,002
-23,947
-23,915
-23,908
-23,925
-23,966
-24,027
-24,106
-24,201
-24,308
-24,425
-24,548
-24,674
-24,802
-24,93
-25,056
-25,181
-25,304
-25,424
-25,543
-25,66
-25,778
-25,896
-26,016
-26,14
-26,269
-26,404
-26,545
-26,694
-26,851
-27,015
-27,186
-27,364
-27,547
-27,736
-27,929
-28,125
-28,323
-28,524
-28,726
-28,93
-29,134
-29,34
-29,546
-29,754
-29,962
-30,171
-30,38
-30,589
-30,797
-31,004
-31,209
-31,41
-31,606
-31,797
-31,98
-32,156
-32,321
-32,477
-32,621
-32,754
-32,875
-32,985
-33,085
-33,174
-33,255
-33,329
-33,397
-33,461
-33,522
-33,582
-33,643
-33,706
-33,772
-33,844
-33,922
-34,007
-34,101
-34,204
-34,318
-34,443
-34,58
-34,729
-34,893
-35,071
-35,265
-35,476
-35,706
-35,954
-36,222
-36,51
-36,819
-37,149
-37,499
-37,869
-38,258
-38,664
-39,085
-39,521
-39,968
-40,425
-40,888
-41,355
-41,823
-42,29
-42,751
-43,204
-43,647
-44,077
-44,491
-44,887
-45,263
-45,617
-45,947
-46,25
-46,525
-46,77
-46,983
-47,162
-47,306
-47,412
-47,479
-47,506
-47,493
-47,438
-47,342
-47,205
-47,027
-46,809
-46,553
-46,26
-45,933
-45,573
-45,185
-44,77
-44,333
-43,876
-43,404
-42,919
-42,426
-41,928
-41,427
-40,927
-40,431
-39,941
-39,46
-38,99
-38,534
-38,093
-37,671
-37,268
-36,888
-36,531
-36,199
-35,893
-35,615
-35,364
-35,142
-34,949
-34,783
-34,645
-34,533
-34,445
-34,38
-34,336
-34,308
-34,295
-34,293
-34,297
-34,306
-34,314
-34,32
-34,318
-34,307
-34,282
-34,242
-34,184
-34,105
-34,004
-33,878
-33,726
-33,546
-33,337
-33,098
-32,828
-32,526
-32,191
-31,823
-31,423
-30,989
-30,522
-30,022
-29,492
-28,932
-28,343
-27,729
-27,09
-26,432
-25,755
-25,064
-24,362
-23,653
-22,939
-22,225
-21,513
-20,806
-20,108
-19,42
-18,745
-18,084
-17,441
-16,815
-16,207
-15,62
-15,052
-14,505
-13,979
-13,474
-12,99
-12,527
-12,085
-11,662
-11,26
-10,877
-10,511
-10,163
-9,829
-9,509
-9,201
-8,902
-8,611
-8,324
-8,041
-7,759
-7,475
-7,188
-6,896
-6,598
-6,292
-5,977
-5,654
-5,321
-4,979
-4,628
-4,27
-3,906
-3,536
-3,164
-2,79
-2,417
-2,047
-1,682
-1,324
-0,976
-0,641
-0,32
-0,018
0,264
0,522
0,753
0,953
1,121
1,254
1,348
1,402
1,413
1,38
1,302
1,178
1,007
0,788
0,523
0,212
-0,144
-0,542
-0,982
-1,458
-1,969
-2,511
-3,078
-3,667
-4,272
-4,888
-5,51
-6,132
-6,747
-7,351
-7,935
-8,493
-9,018
-9,504
-9,943
-10,329
-10,655
-10,915
-11,103
-11,214
-11,243
-11,186
-11,04
-10,8
-10,465
-10,033
-9,504
-8,878
-8,158
-7,344
-6,439
-5,447
-4,372
-3,222
-2,007
-0,737
0,575
1,914
3,266
4,611
5,934
7,22
8,457
9,636
10,745
11,773
12,705
13,527
14,23
14,804
15,244
15,544
15,703
15,725
15,622
15,411
15,1
14,684
14,15
13,479
12,658
11,681
10,544
9,253
7,81
6,225
4,519
2,705
0,803
-1,166
-3,192
-5,258
-7,329
-9,358
-11,246
-12,833
-14,058
-14,939
-15,562
-16,133
-16,789
-17,528
-18,474
-19,841
-21,613
-23,622
-25,421
-26,161
-25,379
-23,155
-19,5
-14,444
-8,258
-1,159
6,081
11,942
15,588
16,968
16,036
12,97
7,851
0,144
-10,015
-21,631
-34,306
-47,934
-62,257
-77,147
-91,61
-103,25
-109,863
-109,454
-99,497
-77,753
-42,082
9,556
77,728
161,13
257,607
363,908
475,573
587,649
694,197
788,814
865,55
919,269
945,826
942,043
907,432
844,824
758,282
652,777
530,935
391,302
236,232
73,811
-80,939
-206,041
-286,315
-318,045
-308,006
-272,095
-222,178
-163,346
-98,336
-28,941
34,609
77,013
88,436
65,225
18,484
-31,638
-70,878
-89,287
-88,918
-81,511
-73,87
-71,041
-73,062
-73,562
-70,189
-62,717
-51,871
-41,313
-32,887
-26,598
-22,615
-20,403
-19,407
-19,54
-20,461
-21,656
-22,913
-24,143
-25,276
-26,358
-27,4
-28,361
-29,263
-30,145
-30,979
-31,708
-32,275
-32,636
-32,789
-32,754
-32,543
-32,158
-31,58
-30,816
-29,876
-28,768
-27,503
-26,082
-24,514
-22,829
-21,08
-19,33
-17,625
-15,99
-14,428
-12,943
-11,534
-10,211
-8,978
-7,824
-6,735
-5,702
-4,713
-3,764
-2,84
-1,909
-0,928
0,155
1,38
2,779
4,376
6,196
8,261
10,596
13,213
16,117
19,314
22,815
26,633
30,785
35,279
40,105
45,254
50,707
56,444
62,443
68,67
75,084
81,644
88,315
95,069
101,886
108,736
115,583
122,383
129,093
135,684
142,144
148,461
154,631
160,665
166,583
172,427
178,253
184,102
189,998
195,946
201,939
207,979
214,073
220,23
226,451
232,709
238,95
245,111
251,103
256,819
262,125
266,852
270,82
273,876
275,887
276,755
276,394
274,711
271,61
266,996
260,787
252,951
243,495
232,458
219,918
205,993
190,839
174,666
157,703
140,166
122,259
104,165
86,066
68,165
50,681
33,848
17,89
2,983
-10,737
-23,169
-34,252
-43,959
-52,305
-59,356
-65,202
-69,934
-73,644
-76,412
-78,333
-79,53
-80,154
-80,381
-80,382
-80,294
-80,228
-80,272
-80,49
-80,93
-81,614
-82,529
-83,648
-84,943
-86,391
-87,976
-89,671
-91,43
-93,188
-94,864
-96,384
-97,701
-98,778
-99,592
-100,13
-100,384
-100,364
-100,098
-99,617
-98,949
-98,119
-97,142
-96,042
-94,851
-93,604
-92,343
-91,102
-89,904
-88,767
-87,706
-86,731
-85,848
-85,059
-84,353
-83,724
-83,166
-82,677
-82,254
-81,895
-81,592
-81,34
-81,131
-80,959
-80,82
-80,709
-80,621
-80,551
-80,496
-80,453
-80,422
-80,401
-80,388
-80,379
-80,371
-80,362
-80,349
-80,329
-80,301
-80,263
-80,213
-80,151
-80,076
-79,989
-79,888
-79,775
-79,648
-79,509
-79,357
-79,194
-79,018
-78,832
-78,636
-78,429
-78,215
-77,992
-77,762
-77,526
-77,286
-77,043
-76,799
-76,556
-76,316
-76,079
-75,849
-75,625
-75,41
-75,204
-75,008
-74,822
-74,646
-74,482
-74,328
-74,184
-74,049
-73,923
-73,805
-73,695
-73,59
-73,49
-73,394
-73,302
-73,213
-73,126
-73,04
-72,956
-72,872
-72,788
-72,704
-72,618
-72,53
-72,438
-72,342
-72,241
-72,132
-72,016
-71,891
-71,756
-71,61
-71,453
-71,285
-71,105
-70,913
-70,709
-70,495
-70,269
-70,033
-69,788
-69,535
-69,275
-69,01
-68,74
-68,467
-68,192
-67,916
-67,64
-67,366
-67,093
-66,824
-66,558
-66,296
-66,04
-65,789
-65,547
-65,312
-65,088
-64,873
-64,671
-64,481
-64,306
-64,144
-63,999
-63,87
-63,758
-63,665
-63,59
-63,535
-63,499
-63,484
-63,488
-63,512
-63,556
-63,619
-63,7
-63,799
-63,916
-64,05
-64,2
-64,367
-64,549
-64,747
-64,96
-65,188
-65,43
-65,686
-65,956
-66,238
-66,533
-66,839
-67,157
-67,486
-67,825
-68,173
-68,529
-68,892
-69,261
-69,635
-70,011
-70,389
-70,767
-71,144
-71,518
-71,888
-72,252
-72,61
-72,961
-73,302
-73,633
-73,953
-74,261
-74,555
-74,833
-75,096
-75,342
-75,569
-75,778
-75,967
-76,134
-76,28
-76,402
-76,501
-76,575
-76,624
-76,647
-76,644
-76,617
-76,564
-76,487
-76,387
-76,265
-76,122
-75,96
-75,78
-75,585
-75,375
-75,154
-74,923
-74,684
-74,44
-74,192
-73,944
-73,697
-73,452
-73,212
-72,979
-72,754
-72,539
-72,336
-72,146
-71,971
-71,813
-71,673
-71,552
-71,452
-71,373
-71,316
-71,28
-71,265
-71,269
-71,29
-71,328
-71,381
-71,446
-71,521
-71,602
-71,687
-71,771
-71,853
-71,926
-71,987
-72,032
-72,057
-72,058
-72,031
-71,973
-71,881
-71,751
-71,581
-71,368
-71,11
-70,803
-70,445
-70,034
-69,569
-69,048
-68,472
-67,841
-67,158
-66,428
-65,657
-64,85
-64,016
-63,163
-62,3
-61,436
-60,579
-59,737
-58,915
-58,123
-57,366
-56,658
-56,007
-55,423
-54,914
-54,49
-54,157
-53,923
-53,793
-53,763
-53,834
-54,006
-54,285
-54,691
-55,24
-55,941
-56,804
-57,829
-59,013
-60,35
-61,816
-63,37
-64,968
-66,562
-68,111
-69,587
-70,955
-72,175
-73,193
-73,939
-74,35
-74,377
-73,986
-73,161
-71,904
-70,24
-68,232
-65,979
-63,604
-61,259
-59,079
-57,185
-55,722
-54,815
-54,646
-55,482
-57,489
-60,705
-65,062
-70,298
-76,06
-82,014
-87,629
-92,175
-95,11
-96,174
-95,447
-93,473
-91,118
-89,378
-89,116
-91,349
-95,94
-101,051
-105,96
-109,946
-112,967
-117,145
-119,084
-110,904
-84,793
-31,541
49,322
149,215
260,05
372,029
479,691
582,564
676,065
756,496
820,442
863,559
886,235
885,867
857,208
798,626
707,602
588,28
450,815
299,863
141,965
-15,229
-165,341
-293,145
-383,025
-428,292
-427,271
-387,377
-323,424
-246,988
-168,976
-101,379
-51,142
-22,076
-14,071
-19,248
-28,54
-36,85
-42,229
-47,242
-55,825
-68,073
-81,804
-93,942
-101,53
-104,069
-102,458
-97,701
-91,039
-83,484
-75,979
-69,633
-65,051
-62,31
-61,253
-61,491
-62,631
-64,329
-66,122
-67,529
-68,292
-68,325
-67,662
-66,43
-64,708
-62,545
-60,03
-57,257
-54,296
-51,203
-48,011
-44,746
-41,461
-38,225
-35,106
-32,159
-29,415
-26,892
-24,6
-22,543
-20,722
-19,128
-17,747
-16,564
-15,569
-14,745
-14,077
-13,543
-13,115
-12,766
-12,465
-12,184
-11,899
-11,589
-11,234
-10,819
-10,326
-9,738
-9,038
-8,21
-7,236
-6,096
-4,772
-3,245
-1,497
0,486
2,714
5,201
7,958
10,997
14,331
17,968
21,905
26,138
30,658
35,448
40,487
45,746
51,18
56,751
62,423
68,161
73,938
79,721
85,468
91,143
96,708
102,138
107,424
112,564
117,56
122,433
127,216
131,951
136,699
141,502
146,384
151,363
156,441
161,626
166,931
172,355
177,886
183,49
189,103
194,643
200,01
205,073
209,673
213,647
216,817
219,029
220,16
220,093
218,733
215,981
211,733
205,911
198,458
189,351
178,617
166,322
152,565
137,499
121,313
104,214
86,429
68,173
49,639
31,033
12,552
-5,588
-23,153
-39,927
-55,71
-70,337
-83,691
-95,693
-106,302
-115,524
-123,406
-130,013
-135,438
-139,768
-143,087
-145,5
-147,121
-148,091
-148,586
-148,766
-148,785
-148,775
-148,834
-149,038
-149,447
-150,087
-150,959
-152,051
-153,337
-154,794
-156,409
-158,148
-159,969
-161,814
-163,597
-165,251
-166,718
-167,949
-168,919
-169,609
-170,006
-170,119
-169,969
-169,581
-168,984
-168,204
-167,256
-166,168
-164,969
-163,694
-162,39
-161,09
-159,819
-158,598
-157,442
-156,361
-155,363
-154,446
-153,603
-152,826
-152,108
-151,444
-150,834
-150,273
-149,755
-149,272
-148,815
-148,379
-147,959
-147,55
-147,149
-146,75
-146,351
-145,951
-145,549
-145,144
-144,735
-144,319
-143,891
-143,451
-142,996
-142,524
-142,032
-141,52
-140,987
-140,433
-139,861
-139,27
-138,663
-138,04
-137,404
-136,757
-136,1
-135,435
-134,764
-134,089
-133,412
-132,734
-132,058
-131,384
-130,713
-130,047
-129,387
-128,735
-128,09
-127,456
-126,832
-126,219
-125,62
-125,036
-124,467
-123,914
-123,379
-122,862
-122,363
-121,884
-121,423
-120,982
-120,558
-120,151
-119,76
-119,385
-119,022
-118,673
-118,334
-118,004
-117,684
-117,372
-117,066
-116,766
-116,472
-116,182
-115,897
-115,615
-115,338
-115,063
-114,792
-114,523
-114,257
-113,993
-113,73
-113,468
-113,205
-112,942
-112,678
-112,41
-112,139
-111,863
-111,582
-111,294
-110,999
-110,696
-110,384
-110,062
-109,73
-109,388
-109,034
-108,669
-108,292
-107,902
-107,498
-107,081
-106,649
-106,202
-105,74
-105,26
-104,764
-104,25
-103,717
-103,165
-102,594
-102,002
-101,391
-100,759
-100,107
-99,435
-98,744
-98,034
-97,307
-96,563
-95,805
-95,033
-94,25
-93,458
-92,657
-91,849
-91,038
-90,223
-89,408
-88,593
-87,781
-86,972
-86,169
-85,373
-84,585
-83,805
-83,036
-82,278
-81,532
-80,797
-80,076
-79,367
-78,673
-77,991
-77,324
-76,669
-76,028
-75,399
-74,78
-74,17
-73,567
-72,968
-72,371
-71,77
-71,164
-70,548
-69,918
-69,271
-68,6
-67,902
-67,172
-66,404
-65,595
-64,738
-63,829
-62,864
-61,838
-60,748
-59,589
-58,36
-57,058
-55,679
-54,222
-52,684
-51,064
-49,362
-47,576
-45,706
-43,753
-41,719
-39,607
-37,42
-35,166
-32,852
-30,484
-28,07
-25,621
-23,148
-20,664
-18,181
-15,71
-13,26
-10,843
-8,471
-6,159
-3,918
-1,756
0,319
2,299
4,176
5,938
7,578
9,096
10,497
11,785
12,96
14,009
14,922
15,693
16,323
16,813
17,167
17,383
17,466
17,445
17,351
17,231
17,129
17,067
17,063
17,128
17,283
17,582
18,096
18,891
20,014
21,484
23,289
25,441
27,975
30,84
33,879
36,802
39,299
41,204
42,548
43,419
43,708
43,264
42,149
40,747
39,725
39,65
40,555
42,168
44,572
48,047
52,673
58,136
63,324
66,798
67,979
66,847
62,978
56,089
46,152
33,321
20,275
10,776
6,423
9,447
20,39
39,024
70,391
118,094
184,745
272,035
373,817
483,731
595,535
701,548
797,519
877,7
936,738
972,887
986,196
980,315
957,803
916,647
851,331
753,962
621,368
459,221
281,168
107,685
-42,191
-155,744
-224,773
-249,766
-233,738
-179,418
-98,892
-5,079
85,744
152,947
190,444
200,124
190,821
180,17
176,25
179,672
187,569
191,871
189,598
183,026
175,339
170,793
171,187
175,648
183,02
192,042
201,76
211,512
220,451
227,691
232,781
235,731
236,805
236,446
235,134
233,296
231,383
229,834
228,879
228,605
229,052
230,189
232,015
234,537
237,712
241,485
245,819
250,667
255,964
261,623
267,496
273,447
279,383
285,234
290,968
296,555
301,961
307,157
312,134
316,887
321,417
325,724
329,801
333,657
337,32
340,834
344,264
347,662
351,066
354,506
358,004
361,578
365,25
369,033
372,932
376,953
381,109
385,416
389,896
394,565
399,436
404,514
409,802
415,311
421,051
427,037
433,277
439,769
446,51
453,495
460,717
468,161
475,801
483,595
491,505
499,501
507,557
515,654
523,764
531,852
539,879
547,807
555,616
563,301
570,856
578,283
585,598
592,836
600,057
607,336
614,723
622,237
629,882
637,651
645,539
653,548
661,671
669,886
678,152
686,414
694,613
702,666
710,454
717,82
724,566
730,492
735,443
739,306
741,99
743,411
743,491
742,162
739,372
735,091
729,291
721,949
713,067
702,697
690,951
678,003
664,07
649,366
634,069
618,344
602,35
586,249
570,201
554,358
538,867
523,882
509,587
496,179
483,812
472,587
462,54
453,658
445,899
439,221
433,587
428,947
425,241
422,404
420,374
419,086
418,459
418,382
418,69
419,215
419,82
420,411
420,93
421,341
421,618
421,742
421,706
421,52
421,197
420,744
420,162
419,454
418,641
417,773
416,928
416,182
415,582
415,161
414,932
414,902
415,077
415,449
415,995
416,685
417,493
418,4
419,397
420,468
421,592
422,736
423,858
424,927
425,922
426,825
427,626
428,316
428,888
429,345
429,7
429,964
430,143
430,244
430,269
430,221
430,108
429,939
429,719
429,454
429,147
428,803
428,423
428,012
427,571
427,097
426,589
426,045
425,464
424,848
424,195
423,506
422,779
422,015
421,215
420,377
419,501
418,587
417,631
416,633
415,591
414,504
413,369
412,183
410,945
409,65
408,298
406,886
405,411
403,87
402,262
400,586
398,84
397,022
395,132
393,168
391,131
389,018
386,829
384,564
382,222
379,802
377,303
374,724
372,063
369,319
366,489
363,571
360,561
357,457
354,255
350,952
347,544
344,027
340,396
336,649
332,78
328,786
324,661
320,402
316,003
311,46
306,769
301,924
296,921
291,755
286,421
280,915
275,232
269,369
263,321
257,084
250,655
244,031
237,211
230,191
222,972
215,553
207,934
200,118
192,107
183,903
175,51
166,933
158,177
149,248
140,152
130,896
121,488
111,936
102,248
92,433
82,5
72,46
62,322
52,097
41,796
31,43
21,01
10,548
0,056
-10,454
-20,972
-31,484
-41,978
-52,444
-62,87
-73,245
-83,558
-93,799
-103,957
-114,025
-123,992
-133,851
-143,595
-153,215
-162,705
-172,059
-181,271
-190,337
-199,25
-208,006
-216,602
-225,034
-233,298
-241,393
-249,316
-257,066
-264,644
-272,047
-279,279
-286,339
-293,23
-299,954
-306,516
-312,918
-319,167
-325,267
-331,225
-337,048
-342,744
-348,321
-353,79
-359,162
-364,448
-369,662
-374,817
-379,927
-385,006
-390,068
-395,127
-400,195
-405,288
-410,418
-415,6
-420,85
-426,183
-431,613
-437,154
-442,818
-448,619
-454,565
-460,661
-466,912
-473,321
-479,895
-486,648
-493,591
-500,732
-508,079
-515,635
-523,394
-531,349
-539,483
-547,764
-556,158
-564,629
-573,14
-581,665
-590,173
-598,628
-606,989
-615,196
-623,188
-630,918
-638,336
-645,405
-652,117
-658,47
-664,498
-670,279
-675,885
-681,401
-686,932
-692,56
-698,398
-704,585
-711,226
-718,461
-726,481
-735,406
-745,305
-756,141
-767,63
-779,38
-791,026
-802,082
-811,983
-820,288
-826,659
-831,117
-834,294
-837,086
-840,281
-844,558
-850,72
-859,421
-870,801
-884,438
-897,911
-907,123
-909,691
-904,072
-889,9
-869,22
-839,31
-794,442
-730,643
-643,017
-534,341
-415,34
-295,945
-188,456
-102,44
-40,282
-3,362
10,286
6,121
-13,453
-51,004
-114,237
-214,925
-362,482
-552,49
-764,51
-970,248
-1138,531
-1249,112
-1302,001
-1305,568
-1273,918
-1224,058
-1164,338
-1103,592
-1053,467
-1017,964
-999,759
-996,705
-998,521
-1000,106
-999,776
-998,259
-1001,056
-1009,637
-1022,089
-1035,674
-1046,004
-1051,075
-1051,189
-1046,911
-1039,462
-1030,089
-1019,61
-1009,192
-1000,139
-993,112
-988,375
-985,899
-985,314
-986,194
-988,108
-990,49
-992,739
-994,48
-995,52
-995,79
-995,337
-994,195
-992,371
-989,904
-986,843
-983,199
-978,977
-974,203
-968,907
-963,169
-957,129
-950,909
-944,627
-938,4
-932,3
-926,384
-920,696
-915,251
-910,05
-905,1
-900,403
-895,966
-891,804
-887,911
-884,274
-880,872
-877,664
-874,604
-871,651
-868,753
-865,861
-862,932
-859,913
-856,759
-853,443
-849,939
-846,227
-842,299
-838,143
-833,749
-829,112
-824,213
-819,032
-813,562
-807,794
-801,731
-795,398
-788,835
-782,108
-775,306
-768,496
-761,73
-755,042
-748,43
-741,881
-735,37
-728,854
-722,315
-715,753
-709,156
-702,524
-695,843
-689,063
-682,11
-674,874
-667,196
-658,927
-649,948
-640,166
-629,556
-618,13
-605,932
-593,057
-579,581
-565,566
-551,076
-536,165
-520,91
-505,437
-489,908
-474,534
-459,598
-445,402
-432,232
-420,359
-409,982
-401,249
-394,274
-389,106
-385,8
-384,422
-385,034
-387,723
-392,544
-399,485
-408,483
-419,415
-432,065
-446,176
-461,468
-477,635
-494,418
-511,58
-528,893
-546,175
-563,229
-579,835
-595,755
-610,713
-624,436
-636,721
-647,414
-656,415
-663,704
-669,296
-673,247
-675,663
-676,636
-676,262
-674,644
-671,868
-668,035
-663,287
-657,792
-651,764
-645,439
-638,998
-632,589
-626,324
-620,273
-614,484
-608,984
-603,754
-598,771
-594,012
-589,451
-585,071
-580,853
-576,745
-572,679
-568,558
-564,271
-559,736
-554,899
-549,718
-544,176
-538,263
-531,981
-525,358
-518,433
-511,238
-503,801
-496,147
-488,293
-480,274
-472,13
-463,906
-455,657
-447,42
-439,223
-431,09
-423,034
-415,063
-407,183
-399,387
-391,661
-383,995
-376,383
-368,821
-361,306
-353,833
-346,393
-338,978
-331,579
-324,187
-316,798
-309,403
-301,996
-294,574
-287,133
-279,671
-272,187
-264,68
-257,146
-249,582
-241,984
-234,347
-226,669
-218,947
-211,176
-203,354
-195,48
-187,552
-179,572
-171,539
-163,454
-155,319
-147,135
-138,905
-130,632
-122,318
-113,968
-105,584
-97,17
-88,729
-80,267
-71,786
-63,291
-54,786
-46,274
-37,761
-29,249
-20,742
-12,245
-3,76
4,709
13,158
21,585
29,985
38,356
46,695
54,998
63,263
71,488
79,669
87,807
95,898
103,942
111,937
119,883
127,779
135,623
143,416
151,157
158,845
166,48
174,061
181,589
189,064
196,483
203,848
211,158
218,411
225,607
232,744
239,822
246,838
253,792
260,682
267,505
274,262
280,949
287,566
294,11
300,579
306,973
313,289
319,525
325,68
331,752
337,741
343,645
349,463
355,194
360,839
366,395
371,865
377,247
382,541
387,749
392,871
397,909
402,863
407,736
412,529
417,245
421,888
426,459
430,962
435,4
439,778
444,098
448,364
452,581
456,751
460,879
464,969
469,025
473,049
477,046
481,018
484,968
488,899
492,812
496,709
500,591
504,458
508,311
512,149
515,971
519,776
523,562
527,326
531,066
534,778
538,459
542,103
545,705
549,261
552,765
556,21
559,591
562,902
566,136
569,286
572,347
575,312
578,174
580,927
583,565
586,082
588,472
590,731
592,853
594,834
596,672
598,364
599,907
601,303
602,549
603,648
604,6
605,407
606,073
606,601
606,997
607,264
607,41
607,441
607,364
607,189
606,923
606,576
606,156
605,673
605,136
604,554
603,937
603,293
602,632
601,962
601,294
600,635
599,993
599,375
598,789
598,24
597,733
597,268
596,846
596,464
596,119
595,808
595,525
595,265
595,019
594,779
594,539
594,291
594,027
593,738
593,412
593,035
592,597
592,088
591,498
590,822
590,047
589,166
588,176
587,072
585,85
584,505
583,019
581,375
579,559
577,559
575,373
573,003
570,453
567,734
564,876
561,908
558,871
555,805
552,74
549,72
546,782
543,96
541,309
538,872
536,698
534,856
533,382
532,279
531,532
531,071
530,834
530,814
530,861
530,714
530,115
528,759
526,536
523,536
519,616
514,516
508,285
501,273
494,16
487,854
482,682
478,529
475,676
474,49
475,017
476,766
478,232
477,63
474,199
467,682
457,672
444,197
427,435
409,421
395,075
387,87
389,717
400,919
418,903
446,256
489,813
554,927
646,863
762,483
890,388
1019,675
1138,965
1240,566
1321,283
1378,721
1412,102
1421,066
1407,893
1373,961
1316,987
1235,63
1125,073
982,826
817,416
642,37
476,845
342,194
250,611
204,004
198,781
226,454
275,384
337,275
401,006
452,176
484,728
496,396
491,854
484,569
481,483
484,732
492,744
497,826
496,599
489,785
479,093
468,848
461,709
457,706
456,584
457,582
459,906
463,328
467,496
471,56
474,675
476,409
476,626
475,475
473,312
470,403
466,996
463,498
460,32
457,707
455,778
454,523
453,84
453,665
453,956
454,639
455,632
456,866
458,278
459,828
461,48
463,178
464,851
466,429
467,856
469,097
470,134
470,958
471,567
471,966
472,169
472,197
472,065
471,789
471,387
470,874
470,273
469,612
468,915
468,213
467,531
466,892
466,314
465,817
465,417
465,128
464,966
464,945
465,078
465,383
465,877
466,576
467,496
468,651
470,048
471,699
473,613
475,798
478,265
481,017
484,05
487,356
490,923
494,732
498,759
502,972
507,325
511,775
516,282
520,808
525,325
529,795
534,176
538,43
542,519
546,413
550,103
553,586
556,859
559,936
562,843
565,611
568,302
570,961
573,61
576,269
578,94
581,631
584,358
587,126
589,917
592,69
595,376
597,885
600,127
601,982
603,306
603,952
603,742
602,52
600,169
596,58
591,656
585,301
577,403
567,872
556,677
543,823
529,36
513,379
495,981
477,314
457,568
436,947
415,684
394,004
372,095
350,155
328,396
307,038
286,336
266,528
247,785
230,242
213,992
199,084
185,557
173,405
162,572
152,984
144,548
137,171
130,779
125,278
120,541
116,42
112,724
109,273
105,935
102,601
99,188
95,635
91,89
87,925
83,752
79,391
74,866
70,195
65,384
60,454
55,45
50,437
45,5
40,718
36,139
31,798
27,719
23,916
20,398
17,156
14,163
11,388
8,805
6,394
4,142
2,029
0,026
-1,904
-3,806
-5,713
-7,649
-9,633
-11,682
-13,804
-16,008
-18,292
-20,648
-23,066
-25,541
-28,069
-30,65
-33,281
-35,955
-38,666
-41,407
-44,172
-46,958
-49,76
-52,576
-55,4
-58,232
-61,071
-63,918
-66,772
-69,634
-72,501
-75,371
-78,242
-81,112
-83,981
-86,845
-89,703
-92,553
-95,395
-98,228
-101,051
-103,864
-106,666
-109,457
-112,235
-115,001
-117,754
-120,494
-123,22
-125,931
-128,626
-131,304
-133,965
-136,606
-139,226
-141,823
-144,397
-146,946
-149,467
-151,96
-154,423
-156,854
-159,251
-161,614
-163,94
-166,229
-168,477
-170,685
-172,852
-174,976
-177,055
-179,09
-181,08
-183,025
-184,923
-186,776
-188,583
-190,346
-192,064
-193,74
-195,374
-196,969
-198,525
-200,047
-201,535
-202,993
-204,423
-205,827
-207,21
-208,574
-209,922
-211,257
-212,582
-213,901
-215,217
-216,533
-217,853
-219,18
-220,516
-221,866
-223,232
-224,616
-226,021
-227,45
-228,904
-230,384
-231,892
-233,429
-234,995
-236,59
-238,214
-239,866
-241,546
-243,25
-244,979
-246,729
-248,499
-250,286
-252,087
-253,9
-255,721
-257,547
-259,376
-261,205
-263,029
-264,845
-266,65
-268,44
-270,211
-271,96
-273,683
-275,377
-277,038
-278,662
-280,247
-281,79
-283,288
-284,739
-286,141
-287,493
-288,792
-290,039
-291,233
-292,373
-293,461
-294,498
-295,484
-296,422
-297,313
-298,159
-298,962
-299,726
-300,452
-301,144
-301,804
-302,436
-303,043
-303,628
-304,195
-304,747
-305,289
-305,824
-306,355
-306,886
-307,421
-307,963
-308,516
-309,083
-309,668
-310,273
-310,901
-311,555
-312,237
-312,949
-313,693
-314,469
-315,279
-316,122
-316,998
-317,909
-318,853
-319,829
-320,837
-321,876
-322,944
-324,039
-325,159
-326,303
-327,466
-328,648
-329,845
-331,054
-332,272
-333,495
-334,722
-335,948
-337,169
-338,382
-339,583
-340,767
-341,93
-343,067
-344,174
-345,246
-346,28
-347,27
-348,213
-349,104
-349,939
-350,715
-351,427
-352,071
-352,643
-353,139
-353,557
-353,893
-354,145
-354,31
-354,388
-354,376
-354,275
-354,082
-353,798
-353,422
-352,955
-352,399
-351,755
-351,026
-350,215
-349,329
-348,373
-347,355
-346,284
-345,168
-344,019
-342,847
-341,667
-340,493
-339,338
-338,214
-337,134
-336,109
-335,152
-334,275
-333,487
-332,795
-332,206
-331,729
-331,373
-331,145
-331,048
-331,075
-331,218
-331,469
-331,824
-332,287
-332,862
-333,547
-334,337
-335,236
-336,245
-337,363
-338,582
-339,865
-341,166
-342,444
-343,665
-344,822
-345,918
-346,939
-347,848
-348,592
-349,105
-349,335
-349,25
-348,791
-347,871
-346,489
-344,72
-342,763
-340,934
-339,511
-338,671
-338,536
-339,185
-340,491
-342,211
-343,95
-345,073
-344,984
-343,187
-339,367
-333,461
-325,772
-316,84
-307,314
-298,124
-290,301
-285,017
-283,33
-285,918
-292,959
-304,142
-318,92
-336,327
-354,833
-372,126
-385,395
-391,708
-388,234
-372,469
-342,064
-295,154
-230,97
-150,051
-54,173
53,693
169,505
287,472
400,068
499,877
581,033
641,615
682,234
702,353
699,248
665,484
593,977
482,681
334,564
161,452
-21,57
-198,498
-351,991
-470,653
-547,875
-583,7
-585,844
-562,082
-519,92
-466,019
-405,722
-347,313
-299,173
-265,847
-247,349
-238,207
-232,259
-226,642
-221,946
-221,571
-227,607
-239,23
-253,729
-267,254
-277,149
-282,727
-284,234
-282,446
-278,21
-272,241
-265,437
-258,914
-253,73
-250,416
-249,01
-249,309
-250,912
-253,406
-256,407
-259,429
-261,985
-263,822
-264,85
-265,059
-264,529
-263,285
-261,328
-258,734
-255,607
-252,05
-248,179
-244,08
-239,822
-235,508
-231,235
-227,077
-223,095
-219,31
-215,727
-212,363
-209,232
-206,356
-203,744
-201,395
-199,294
-197,421
-195,738
-194,21
-192,798
-191,457
-190,149
-188,842
-187,508
-186,128
-184,69
-183,179
-181,579
-179,867
-178,021
-176,017
-173,835
-171,452
-168,853
-166,02
-162,934
-159,577
-155,927
-151,969
-147,699
-143,112
-138,205
-132,985
-127,462
-121,659
-115,613
-109,354
-102,909
-96,301
-89,547
-82,673
-75,713
-68,698
-61,659
-54,615
-47,573
-40,535
-33,501
-26,453
-19,357
-12,166
-4,814
2,741
10,509
18,489
26,662
35,016
43,544
52,218
60,994
69,817
78,615
87,312
95,824
104,026
111,755
118,839
125,09
130,355
134,531
137,528
139,271
139,687
138,71
136,299
132,45
127,171
120,474
112,383
102,946
92,271
80,525
67,884
54,541
40,669
26,411
11,91
-2,681
-17,206
-31,509
-45,444
-58,89
-71,734
-83,851
-95,124
-105,462
-114,823
-123,22
-130,679
-137,229
-142,905
-147,735
-151,76
-155,045
-157,667
-159,707
-161,265
-162,424
-163,263
-163,874
-164,349
-164,762
-165,162
-165,568
-165,986
-166,426
-166,892
-167,385
-167,896
-168,4
-168,865
-169,252
-169,508
-169,588
-169,463
-169,094
-168,452
-167,518
-166,28
-164,741
-162,92
-160,832
-158,49
-155,914
-153,125
-150,152
-147,027
-143,786
-140,47
-137,114
-133,746
-130,391
-127,07
-123,799
-120,591
-117,453
-114,382
-111,38
-108,446
-105,583
-102,79
-100,066
-97,407
-94,808
-92,265
-89,773
-87,33
-84,932
-82,578
-80,266
-77,995
-75,765
-73,577
-71,431
-69,327
-67,262
-65,234
-63,239
-61,277
-59,343
-57,435
-55,549
-53,684
-51,838
-50,009
-48,196
-46,398
-44,615
-42,847
-41,093
-39,355
-37,633
-35,929
-34,243
-32,578
-30,935
-29,314
-27,719
-26,149
-24,606
-23,092
-21,606
-20,151
-18,727
-17,334
-15,974
-14,648
-13,355
-12,097
-10,875
-9,689
-8,539
-7,428
-6,356
-5,323
-4,329
-3,375
-2,461
-1,587
-0,753
0,043
0,8
1,52
2,203
2,851
3,464
4,044
4,591
5,108
5,595
6,053
6,484
6,889
7,27
7,626
7,961
8,273
8,566
8,84
9,095
9,334
9,557
9,766
9,963
10,149
10,325
10,493
10,655
10,813
10,967
11,12
11,273
11,428
11,586
11,749
11,917
12,093
12,278
12,473
12,679
12,899
13,132
13,38
13,645
13,927
14,227
14,546
14,885
15,246
15,627
16,032
16,458
16,908
17,381
17,876
18,394
18,934
19,494
20,075
20,676
21,294
21,93
22,581
23,247
23,925
24,616
25,316
26,025
26,74
27,461
28,185
28,911
29,637
30,362
31,085
31,803
32,515
33,22
33,916
34,602
35,277
35,939
36,586
37,218
37,834
38,433
39,015
39,579
40,125
40,653
41,164
41,657
42,132
42,59
43,032
43,458
43,868
44,264
44,646
45,016
45,373
45,72
46,057
46,385
46,706
47,018
47,325
47,626
47,922
48,214
48,504
48,793
49,082
49,372
49,666
49,964
50,269
50,581
50,903
51,235
51,579
51,938
52,311
52,702
53,112
53,542
53,994
54,471
54,972
55,5
56,056
56,64
57,254
57,898
58,572
59,278
60,015
60,784
61,584
62,416
63,278
64,17
65,091
66,036
67,001
67,981
68,97
69,96
70,945
71,917
72,868
73,789
74,677
75,525
76,327
77,078
77,769
78,393
78,942
79,411
79,794
80,088
80,289
80,394
80,408
80,334
80,172
79,92
79,562
79,087
78,484
77,749
76,881
75,884
74,763
73,535
72,23
70,885
69,539
68,229
66,979
65,822
64,794
63,951
63,365
63,102
63,218
63,751
64,721
66,134
67,985
70,231
72,802
75,601
78,497
81,368
84,083
86,49
88,459
89,797
90,232
89,589
87,792
84,928
81,344
77,414
73,448
69,918
67,401
66,293
66,856
68,819
71,183
72,998
73,421
71,608
67,03
59,453
48,978
36,836
25,582
18,036
17,294
26,411
47,806
83,845
136,374
205,644
290,035
386,79
492,094
601,376
709,942
811,184
897,033
960,896
998,829
1011,052
1002,314
977,011
934,335
868,983
771,853
635,055
463,306
274,292
93,458
-50,202
-140,439
-179,916
-180,547
-160,921
-134,128
-100,207
-58,178
-8,318
44,268
87,655
114,274
123,798
121,974
117,555
115,652
115,968
114,887
109,776
100,804
90,562
82,656
78,705
78,468
81,226
85,926
91,785
98,316
104,542
109,357
112,305
113,33
112,671
110,797
108,051
104,718
101,244
98,104
95,567
93,76
92,661
92,152
92,179
92,729
93,777
95,295
97,234
99,518
102,064
104,799
107,646
110,52
113,337
116,018
118,51
120,788
122,854
124,719
126,388
127,862
129,136
130,2
131,058
131,735
132,262
132,674
133,004
133,284
133,549
133,839
134,185
134,608
135,12
135,73
136,45
137,299
138,297
139,463
140,819
142,381
144,161
146,176
148,441
150,973
153,794
156,911
160,329
164,046
168,061
172,365
176,945
181,776
186,824
192,054
197,437
202,951
208,58
214,302
220,084
225,89
231,672
237,401
243,065
248,653
254,156
259,583
264,948
270,3
275,712
281,232
286,881
292,656
298,529
304,483
310,514
316,609
322,759
328,932
335,072
341,135
347,069
352,781
358,151
363,004
367,123
370,338
372,533
373,619
373,537
372,213
369,571
365,558
360,13
353,255
344,909
335,051
323,662
310,799
296,572
281,161
264,798
247,67
229,929
211,726
193,204
174,524
155,852
137,337
119,123
101,385
84,324
68,158
53,073
39,179
26,526
15,113
4,9
-4,136
-12,012
-18,773
-24,473
-29,177
-32,955
-35,873
-38,016
-39,513
-40,544
-41,293
-41,914
-42,512
-43,154
-43,886
-44,739
-45,742
-46,904
-48,216
-49,662
-51,23
-52,915
-54,703
-56,567
-58,447
-60,254
-61,905
-63,345
-64,537
-65,462
-66,108
-66,469
-66,549
-66,373
-65,971
-65,37
-64,592
-63,651
-62,564
-61,36
-60,076
-58,757
-57,437
-56,14
-54,886
-53,686
-52,552
-51,49
-50,5
-49,57
-48,692
-47,859
-47,068
-46,319
-45,608
-44,929
-44,275
-43,64
-43,021
-42,416
-41,822
-41,237
-40,66
-40,091
-39,533
-38,99
-38,463
-37,952
-37,46
-36,985
-36,529
-36,093
-35,678
-35,282
-34,908
-34,556
-34,229
-33,927
-33,654
-33,409
-33,194
-33,012
-32,864
-32,752
-32,676
-32,64
-32,643
-32,688
-32,774
-32,904
-33,076
-33,291
-33,548
-33,846
-34,186
-34,564
-34,98
-35,431
-35,916
-36,432
-36,978
-37,549
-38,144
-38,76
-39,392
-40,04
-40,699
-41,366
-42,039
-42,714
-43,389
-44,062
-44,728
-45,387
-46,036
-46,672
-47,294
-47,9
-48,487
-49,054
-49,6
-50,122
-50,619
-51,091
-51,535
-51,951
-52,338
-52,696
-53,023
-53,322
-53,59
-53,829
-54,04
-54,223
-54,379
-54,51
-54,617
-54,702
-54,766
-54,811
-54,839
-54,851
-54,849
-54,834
-54,807
-54,771
-54,724
-54,67
-54,609
-54,542
-54,47
-54,394
-54,316
-54,236
-54,157
-54,08
-54,005
-53,935
-53,871
-53,815
-53,767
-53,729
-53,703
-53,689
-53,687
-53,699
-53,725
-53,765
-53,819
-53,887
-53,968
-54,062
-54,168
-54,286
-54,415
-54,555
-54,704
-54,863
-55,031
-55,207
-55,391
-55,583
-55,782
-55,987
-56,198
-56,414
-56,634
-56,858
-57,084
-57,31
-57,537
-57,762
-57,985
-58,204
-58,417
-58,625
-58,825
-59,017
-59,201
-59,375
-59,539
-59,694
-59,839
-59,976
-60,103
-60,223
-60,335
-60,441
-60,541
-60,635
-60,725
-60,81
-60,893
-60,972
-61,049
-61,124
-61,197
-61,27
-61,342
-61,414
-61,486
-61,56
-61,636
-61,714
-61,796
-61,881
-61,971
-62,066
-62,167
-62,275
-62,389
-62,511
-62,641
-62,778
-62,922
-63,072
-63,229
-63,391
-63,557
-63,727
-63,899
-64,072
-64,246
-64,42
-64,592
-64,763
-64,931
-65,096
-65,258
-65,416
-65,57
-65,721
-65,867
-66,01
-66,149
-66,283
-66,414
-66,541
-66,663
-66,781
-66,894
-67,003
-67,106
-67,204
-67,296
-67,384
-67,466
-67,543
-67,616
-67,686
-67,752
-67,817
-67,88
-67,942
-68,006
-68,07
-68,137
-68,207
-68,28
-68,356
-68,437
-68,522
-68,611
-68,704
-68,8
-68,9
-69,002
-69,107
-69,213
-69,322
-69,431
-69,542
-69,655
-69,769
-69,885
-70,003
-70,123
-70,247
-70,374
-70,505
-70,64
-70,778
-70,921
-71,068
-71,219
-71,374
-71,532
-71,694
-71,859
-72,028
-72,198
-72,371
-72,547
-72,725
-72,905
-73,088
-73,273
-73,462
-73,654
-73,849
-74,049
-74,252
-74,458
-74,667
-74,878
-75,09
-75,301
-75,508
-75,71
-75,905
-76,089
-76,261
-76,417
-76,556
-76,672
-76,765
-76,831
-76,867
-76,87
-76,838
-76,767
-76,656
-76,503
-76,305
-76,06
-75,768
-75,427
-75,035
-74,592
-74,097
-73,549
-72,948
-72,294
-71,589
-70,834
-70,031
-69,186
-68,306
-67,398
-66,47
-65,532
-64,593
-63,665
-62,76
-61,889
-61,061
-60,285
-59,57
-58,927
-58,37
-57,909
-57,554
-57,314
-57,196
-57,208
-57,359
-57,654
-58,092
-58,67
-59,386
-60,246
-61,267
-62,462
-63,841
-65,405
-67,152
-69,08
-71,18
-73,436
-75,813
-78,268
-80,758
-83,239
-85,682
-88,061
-90,341
-92,474
-94,397
-96,031
-97,314
-98,212
-98,7
-98,777
-98,473
-97,793
-96,769
-95,57
-94,366
-93,328
-92,665
-92,422
-92,579
-93,367
-95,076
-97,704
-101,224
-105,326
-109,386
-113,261
-116,916
-119,864
-121,575
-121,826
-120,439
-118,043
-116,054
-115,13
-115,783
-118,794
-124,547
-133,218
-144,718
-157,456
-168,478
-175,185
-174,754
-164,273
-141,537
-104,126
-50,111
20,436
105,522
202,501
307,738
416,664
524,677
625,032
709,447
772,619
811,589
825,413
817,74
789,591
737,995
661,676
555,665
417,812
256,159
82,509
-84,074
-221,475
-317,361
-368,313
-379,43
-362,067
-324,516
-272,679
-212,567
-152,455
-104,842
-78,05
-73,945
-86,616
-102,843
-114,279
-118,728
-118,386
-119,527
-124,659
-132,108
-139,202
-142,965
-142,57
-139,006
-133,389
-126,782
-119,854
-113,239
-107,785
-103,934
-101,775
-101,178
-101,788
-103,309
-105,499
-107,974
-110,279
-112,104
-113,282
-113,773
-113,645
-112,933
-111,654
-109,863
-107,638
-105,062
-102,206
-99,117
-95,828
-92,385
-88,855
-85,314
-81,837
-78,492
-75,321
-72,353
-69,607
-67,095
-64,818
-62,769
-60,935
-59,294
-57,826
-56,513
-55,336
-54,277
-53,311
-52,413
-51,554
-50,712
-49,864
-48,993
-48,08
-47,107
-46,055
-44,907
-43,647
-42,262
-40,733
-39,042
-37,168
-35,095
-32,809
-30,297
-27,541
-24,525
-21,229
-17,641
-13,758
-9,582
-5,117
-0,375
4,629
9,866
15,298
20,887
26,598
32,404
38,283
44,206
50,137
56,038
61,867
67,603
73,238
78,77
84,205
89,561
94,872
100,195
105,604
111,153
116,881
122,804
128,924
135,249
141,79
148,556
155,544
162,716
170,004
177,327
184,577
191,623
198,305
204,418
209,749
214,113
217,349
219,334
219,961
219,116
216,689
212,572
206,682
198,991
189,514
178,299
165,44
151,07
135,371
118,578
100,945
82,707
64,085
45,275
26,469
7,88
-10,266
-27,732
-44,296
-59,789
-74,083
-87,082
-98,739
-109,036
-118,003
-125,721
-132,288
-137,798
-142,345
-146,003
-148,864
-151,046
-152,693
-153,974
-155,052
-156,052
-157,077
-158,206
-159,491
-160,972
-162,661
-164,533
-166,558
-168,706
-170,951
-173,281
-175,67
-178,075
-180,434
-182,665
-184,699
-186,486
-187,993
-189,195
-190,082
-190,647
-190,901
-190,873
-190,597
-190,099
-189,406
-188,532
-187,5
-186,343
-185,099
-183,809
-182,512
-181,233
-179,992
-178,806
-177,689
-176,65
-175,69
-174,802
-173,98
-173,22
-172,519
-171,879
-171,297
-170,767
-170,283
-169,839
-169,43
-169,051
-168,698
-168,367
-168,054
-167,756
-167,472
-167,202
-166,945
-166,699
-166,461
-166,228
-165,996
-165,762
-165,523
-165,277
-165,019
-164,748
-164,463
-164,162
-163,846
-163,513
-163,162
-162,795
-162,41
-162,01
-161,593
-161,162
-160,718
-160,261
-159,794
-159,318
-158,836
-158,347
-157,855
-157,36
-156,865
-156,371
-155,88
-155,392
-154,911
-154,437
-153,972
-153,519
-153,079
-152,653
-152,244
-151,853
-151,482
-151,132
-150,803
-150,496
-150,213
-149,952
-149,715
-149,502
-149,312
-149,146
-149,002
-148,881
-148,782
-148,703
-148,643
-148,602
-148,577
-148,568
-148,573
-148,59
-148,618
-148,655
-148,7
-148,751
-148,807
-148,864
-148,922
-148,979
-149,031
-149,076
-149,113
-149,139
-149,152
-149,15
-149,13
-149,092
-149,032
-148,949
-148,84
-148,705
-148,541
-148,346
-148,12
-147,86
-147,566
-147,238
-146,874
-146,474
-146,038
-145,566
-145,057
-144,513
-143,932
-143,315
-142,663
-141,976
-141,256
-140,503
-139,719
-138,906
-138,064
-137,195
-136,302
-135,386
-134,448
-133,492
-132,519
-131,53
-130,53
-129,519
-128,501
-127,477
-126,451
-125,424
-124,399
-123,377
-122,362
-121,354
-120,357
-119,37
-118,396
-117,436
-116,492
-115,564
-114,654
-113,763
-112,891
-112,038
-111,205
-110,393
-109,599
-108,826
-108,072
-107,336
-106,619
-105,919
-105,236
-104,569
-103,917
-103,278
-102,652
-102,036
-101,429
-100,83
-100,237
-99,648
-99,061
-98,474
-97,887
-97,296
-96,702
-96,101
-95,492
-94,873
-94,244
-93,602
-92,946
-92,276
-91,589
-90,887
-90,166
-89,428
-88,671
-87,895
-87,098
-86,282
-85,445
-84,586
-83,705
-82,803
-81,878
-80,93
-79,96
-78,967
-77,951
-76,912
-75,85
-74,764
-73,656
-72,524
-71,37
-70,193
-68,994
-67,772
-66,529
-65,264
-63,978
-62,671
-61,343
-59,993
-58,621
-57,228
-55,813
-54,376
-52,917
-51,436
-49,933
-48,408
-46,861
-45,293
-43,705
-42,096
-40,468
-38,821
-37,156
-35,474
-33,777
-32,065
-30,34
-28,603
-26,855
-25,097
-23,332
-21,559
-19,781
-17,997
-16,21
-14,421
-12,63
-10,841
-9,053
-7,269
-5,49
-3,719
-1,957
-0,205
1,534
3,259
4,968
6,661
8,336
9,992
11,628
13,245
14,84
16,414
17,967
19,499
21,009
22,499
23,968
25,417
26,846
28,257
29,648
31,02
32,373
33,707
35,024
36,321
37,601
38,864
40,11
41,341
42,558
43,762
44,954
46,137
47,313
48,482
49,646
50,808
51,97
53,133
54,299
55,471
56,65
57,839
59,04
60,256
61,489
62,742
64,017
65,318
66,648
68,01
69,408
70,846
72,329
73,862
75,448
77,093
78,802
80,579
82,428
84,353
86,357
88,443
90,614
92,87
95,214
97,647
100,171
102,785
105,488
108,281
111,161
114,125
117,171
120,293
123,483
126,733
130,033
133,375
136,749
140,144
143,546
146,941
150,316
153,659
156,957
160,194
163,355
166,422
169,383
172,227
174,944
177,526
179,964
182,25
184,378
186,348
188,159
189,81
191,294
192,602
193,73
194,673
195,436
196,027
196,451
196,722
196,862
196,898
196,864
196,801
196,747
196,738
196,808
196,985
197,301
197,802
198,548
199,6
201,014
202,814
204,98
207,505
210,403
213,606
216,977
220,27
223,104
225,246
226,68
227,364
227,208
226,249
224,6
222,744
221,689
222,134
224,312
228,353
234,232
241,787
250,809
260,408
268,783
274,301
275,742
272,492
264,539
252,839
239,582
226,382
215,277
207,485
201,991
202,163
214,566
245,635
303,383
387,872
490,601
603,5
717,177
826,36
930,863
1026,782
1109,368
1173,693
1216,838
1241,989
1252,188
1249,062
1228,115
1177,507
1089,314
959,727
793,933
609,967
428,429
270,049
151,484
79,903
53,461
65,383
107,055
165,986
232,498
297,326
348,664
382,273
396,737
394
382,326
368,45
358,454
355,853
360,645
370,433
380,074
386,671
388,609
386,592
384,749
385,32
389,373
396,748
405,134
412,907
419,229
423,67
426,552
428,169
428,621
428,144
427,023
425,639
424,474
423,83
423,842
424,55
425,919
427,93
430,591
433,884
437,739
442,057
446,726
451,647
456,763
462
467,271
472,478
477,524
482,349
486,932
491,265
495,339
499,138
502,644
505,842
508,745
511,376
513,77
515,958
517,966
519,825
521,569
523,239
524,873
526,496
528,119
529,753
531,411
533,111
534,872
536,716
538,656
540,708
542,885
545,204
547,683
550,336
553,178
556,216
559,459
562,918
566,606
570,538
574,726
579,176
583,881
588,836
594,03
599,444
605,054
610,826
616,715
622,683
628,698
634,728
640,751
646,737
652,646
658,443
664,094
669,573
674,873
679,988
684,917
689,678
694,303
698,836
703,337
707,839
712,355
716,892
721,442
726
730,569
735,136
739,674
744,152
748,512
752,686
756,596
760,119
763,104
765,392
766,812
767,232
766,556
764,682
761,532
757,029
751,102
743,716
734,858
724,51
712,684
699,43
684,819
668,991
652,134
634,445
616,13
597,376
578,351
559,241
540,237
521,525
503,277
485,636
468,731
452,705
437,684
423,751
410,96
399,304
388,728
379,176
370,583
362,881
355,995
349,826
344,255
339,16
334,435
329,993
325,747
321,594
317,44
313,214
308,871
304,4
299,81
295,107
290,298
285,399
280,439
275,46
270,517
265,671
260,965
256,426
252,086
247,975
244,12
240,537
237,226
234,169
231,348
228,749
226,355
224,148
222,101
220,179
218,348
216,569
214,812
213,055
211,277
209,46
207,592
205,662
203,667
201,612
199,498
197,325
195,094
192,806
190,464
188,074
185,642
183,175
180,679
178,159
175,618
173,06
170,488
167,903
165,306
162,695
160,07
157,431
154,779
152,116
149,441
146,755
144,058
141,351
138,634
135,906
133,166
130,413
127,645
124,86
122,057
119,235
116,392
113,525
110,634
107,717
104,77
101,793
98,783
95,737
92,655
89,533
86,371
83,167
79,919
76,628
73,292
69,911
66,486
63,015
59,499
55,939
52,337
48,692
45,006
41,281
37,518
33,719
29,885
26,019
22,123
18,198
14,248
10,273
6,275
2,258
-1,777
-5,829
-9,894
-13,97
-18,057
-22,15
-26,249
-30,351
-34,453
-38,554
-42,651
-46,742
-50,825
-54,899
-58,962
-63,011
-67,046
-71,064
-75,065
-79,046
-83,008
-86,948
-90,865
-94,758
-98,627
-102,47
-106,285
-110,072
-113,829
-117,556
-121,251
-124,914
-128,544
-132,14
-135,701
-139,228
-142,719
-146,176
-149,598
-152,987
-156,342
-159,665
-162,957
-166,22
-169,456
-172,667
-175,854
-179,021
-182,171
-185,305
-188,427
-191,54
-194,647
-197,752
-200,858
-203,968
-207,087
-210,218
-213,365
-216,533
-219,724
-222,942
-226,192
-229,477
-232,799
-236,164
-239,573
-243,029
-246,536
-250,096
-253,71
-257,38
-261,109
-264,896
-268,742
