Name,Alessandro
Date of Birth,"25 Sep 2006"
Recorded Date,2024-08-20 18:05:42 +0200
Classification,Heart Rate Over 150
Symptoms,
Software Version,1.90
Device,"Watch7,2"
Sample Rate,512 hertz


Lead,Lead I
Unit,µV

49,622
49,74
49,841
49,915
49,953
49,943
49,873
49,732
49,507
49,185
48,754
48,203
47,522
46,7
45,73
44,602
43,308
41,843
40,204
38,388
36,394
34,225
31,882
29,373
26,706
23,89
20,935
17,854
14,66
11,368
7,995
4,557
1,073
-2,439
-5,96
-9,466
-12,935
-16,344
-19,671
-22,893
-25,986
-28,929
-31,701
-34,286
-36,673
-38,853
-40,813
-42,546
-44,046
-45,31
-46,336
-47,119
-47,653
-47,933
-47,963
-47,753
-47,316
-46,665
-45,813
-44,773
-43,564
-42,208
-40,726
-39,127
-37,414
-35,603
-33,72
-31,807
-29,925
-28,118
-26,417
-24,85
-23,444
-22,22
-21,184
-20,315
-19,554
-18,852
-18,178
-17,516
-16,866
-16,191
-15,432
-14,523
-13,386
-11,975
-10,28
-8,285
-5,985
-3,436
-0,716
2,053
4,663
6,923
8,655
9,639
9,685
8,613
6,154
1,987
-4,056
-11,943
-21,358
-31,651
-42,1
-52,06
-60,741
-67,194
-70,809
-71,563
-70,276
-68,717
-68,862
-72,237
-80,151
-93,815
-113,541
-138,381
-165,622
-190,556
-207,54
-211,337
-197,332
-160,797
-98,005
-7,191
111,299
251,668
403,085
555,454
698,897
830,239
954,068
1069,125
1169,832
1236,32
1236,466
1150,016
967,905
709,135
418,888
141,259
-80,147
-227,028
-310,461
-347,341
-363,792
-372,153
-364,685
-338,903
-293,992
-237,591
-190,513
-160,885
-143,86
-133,301
-118,128
-96,362
-77,44
-66,26
-65,43
-74,064
-86,41
-99,386
-111,711
-122,18
-130,294
-135,56
-137,723
-137,276
-134,918
-131,379
-127,592
-124,188
-121,679
-120,369
-120,076
-120,439
-121,056
-121,397
-120,883
-119,171
-116,045
-111,421
-105,418
-98,134
-89,665
-80,177
-69,847
-58,813
-47,218
-35,174
-22,774
-10,161
2,527
15,173
27,663
39,917
51,873
63,469
74,657
85,398
95,651
105,374
114,525
123,049
130,903
138,047
144,452
150,099
154,97
159,047
162,316
164,763
166,377
167,15
167,072
166,136
164,342
161,699
158,225
153,946
148,891
143,091
136,584
129,411
121,618
113,25
104,354
94,978
85,17
74,979
64,461
53,669
42,659
31,484
20,198
8,858
-2,478
-13,756
-24,924
-35,933
-46,737
-57,294
-67,563
-77,512
-87,113
-96,343
-105,178
-113,599
-121,586
-129,122
-136,197
-142,798
-148,918
-154,552
-159,701
-164,371
-168,578
-172,337
-175,661
-178,565
-181,063
-183,166
-184,898
-186,275
-187,303
-188,003
-188,4
-188,54
-188,491
-188,305
-188,012
-187,646
-187,227
-186,775
-186,309
-185,805
-185,2
-184,441
-183,469
-182,264
-180,862
-179,261
-177,438
-175,361
-172,955
-170,217
-167,199
-163,909
-160,317
-156,399
-152,154
-147,736
-143,451
-139,576
-136,385
-134,029
-132,593
-132,337
-133,369
-135,592
-138,777
-142,271
-145,365
-147,768
-149,108
-148,841
-147,073
-144,071
-140,357
-137,637
-137,347
-140,209
-147,45
-159,899
-176,815
-196,924
-217,782
-234,801
-243,834
-241,466
-223,485
-186,276
-128,232
-49,48
47,547
155,531
264,515
367,82
458,837
533,356
593,751
635,04
647,439
623,035
548,193
418,215
243,38
40,003
-163,562
-335,053
-453,811
-511,642
-517,115
-493,075
-459,266
-426,036
-394,149
-356,15
-308,582
-254,74
-200,755
-154,588
-120,526
-99,036
-89,55
-90,164
-98,421
-111,81
-127,477
-142,663
-155,536
-164,777
-169,528
-169,642
-165,574
-158,272
-149,086
-139,547
-130,599
-122,759
-116,273
-110,998
-106,74
-103,248
-100,032
-96,45
-92,111
-86,837
-80,602
-73,569
-65,836
-57,438
-48,478
-39,102
-29,449
-19,645
-9,793
0,045
9,811
19,438
28,858
38,003
46,825
55,293
63,394
71,122
78,446
85,326
91,723
97,6
102,935
107,706
111,896
115,489
118,479
120,862
122,64
123,815
124,387
124,354
123,715
122,466
120,615
118,174
115,157
111,586
107,486
102,881
97,804
92,288
86,369
80,082
73,462
66,549
59,38
51,999
44,445
36,759
28,984
21,161
13,334
5,543
-2,17
-9,765
-17,202
-24,443
-31,452
-38,198
-44,654
-50,794
-56,598
-62,051
-67,142
-71,864
-76,211
-80,179
-83,764
-86,965
-89,781
-92,214
-94,265
-95,941
-97,255
-98,226
-98,875
-99,229
-99,315
-99,158
-98,786
-98,222
-97,488
-96,61
-95,603
-94,482
-93,276
-92,02
-90,762
-89,564
-88,464
-87,488
-86,665
-86,013
-85,535
-85,223
-85,026
-84,876
-84,739
-84,587
-84,424
-84,296
-84,206
-84,157
-84,151
-84,138
-84,11
-84,074
-83,989
-83,802
-83,489
-83,072
-82,712
-82,675
-83,157
-84,324
-86,255
-88,94
-92,489
-96,842
-101,739
-106,876
-111,714
-115,735
-118,764
-120,737
-121,513
-121,447
-121,04
-120,73
-121,647
-124,78
-130,59
-139,468
-151,249
-164,584
-177,751
-189,039
-195,824
-195,595
-186,212
-165,289
-131,57
-85,793
-29,635
34,867
104,356
174,696
241,401
298,876
341,498
365,296
367,643
346,219
302,467
241,91
167,527
82,629
-10,457
-114,829
-223,015
-318,974
-389,121
-417,625
-403,888
-364,259
-313,555
-267,703
-234,204
-208,341
-187,352
-169,072
-153,086
-142,842
-138,904
-139,581
-142,622
-144,993
-145,179
-143,031
-138,687
-132,659
-125,538
-117,908
-110,53
-104,095
-98,904
-94,969
-92,06
-89,806
-87,852
-85,864
-83,604
-80,933
-77,777
-74,135
-70,016
-65,419
-60,378
-54,934
-49,1
-42,898
-36,343
-29,455
-22,309
-15,025
-7,725
-0,548
6,417
13,121
19,516
25,563
31,233
36,492
41,329
45,751
49,738
53,263
56,298
58,814
60,799
62,261
63,202
63,631
63,557
62,984
61,919
60,373
58,35
55,854
52,888
49,453
45,557
41,217
36,452
31,284
25,739
19,841
13,617
7,097
0,313
-6,709
-13,935
-21,338
-28,885
-36,541
-44,272
-52,044
-59,819
-67,564
-75,245
-82,831
-90,289
-97,59
-104,706
-111,608
-118,273
-124,676
-130,794
-136,607
-142,097
-147,248
-152,05
-156,495
-160,581
-164,311
-167,688
-170,72
-173,414
-175,781
-177,829
-179,568
-181,005
-182,148
-183,009
-183,606
-183,954
-184,08
-184,01
-183,77
-183,386
-182,884
-182,282
-181,604
-180,871
-180,094
-179,29
-178,484
-177,713
-177,034
-176,497
-176,127
-175,944
-175,96
-176,172
-176,576
-177,154
-177,839
-178,569
-179,292
-179,954
-180,554
-181,107
-181,585
-181,947
-182,127
-182,07
-181,801
-181,373
-180,797
-180,083
-179,225
-178,27
-177,423
-176,919
-176,956
-177,738
-179,323
-181,762
-185,27
-189,923
-195,623
-202,102
-208,649
-214,486
-219,203
-222,333
-223,33
-222,217
-219,16
-214,724
-210,663
-208,622
-209,67
-215,114
-225,631
-240,338
-257,853
-275,798
-289,746
-295,466
-289,361
-267,378
-226,441
-165,636
-85,589
11,349
117,982
224,307
324,183
411,809
484,133
545,104
588,091
601,262
578,483
508,192
394,636
254,954
97,456
-59,916
-205,416
-333,645
-423,426
-465,437
-453,61
-383,05
-275,395
-151,18
-33,581
46,078
80,518
72,12
32,578
-9,504
-38,055
-48,236
-42,128
-33,049
-28,342
-27,396
-27,599
-24,157
-15,943
-5,627
4,574
13,222
20,055
25,479
29,494
32,101
33,763
35,362
37,606
40,746
44,745
49,41
54,714
60,786
67,639
75,15
83,212
91,762
100,8
110,396
120,534
131,101
141,964
152,961
163,982
174,981
185,91
196,719
207,365
217,794
227,972
237,885
247,497
256,753
265,601
273,978
281,839
289,16
295,923
302,113
307,716
312,713
317,084
320,815
323,888
326,282
327,981
328,966
329,226
328,762
327,577
325,68
323,085
319,808
315,869
311,294
306,108
300,34
294,021
287,185
279,87
272,116
263,965
255,463
246,656
237,593
228,322
218,893
209,355
199,754
190,138
180,553
171,044
161,656
152,429
143,404
134,617
126,104
117,898
110,027
102,516
95,378
88,623
82,257
76,283
70,701
65,514
60,716
56,306
52,282
48,639
45,371
42,471
39,921
37,697
35,767
34,103
32,688
31,511
30,565
29,839
29,318
28,985
28,816
28,776
28,808
28,852
28,845
28,737
28,486
28,082
27,54
26,873
26,107
25,234
24,215
23,048
21,751
20,356
18,938
17,562
16,251
15,085
14,203
13,6
13,228
12,855
11,946
10,214
7,649
4,237
0,081
-4,55
-9,507
-14,246
-17,495
-18,609
-17,515
-14,165
-9,114
-3,038
3,872
10,878
16,112
18,239
16,204
8,594
-4,953
-24,424
-50,312
-82,363
-118,801
-157,328
-194,611
-225,644
-245,78
-250,996
-237,249
-200,876
-139,554
-53,148
56,401
182,036
312,671
440,813
560,134
665,968
759,221
831,042
867,133
859,37
796,531
682,476
531,705
349,584
151,802
-47,034
-231,638
-370,653
-448,313
-464,208
-429,919
-376,248
-323,312
-277,731
-240,237
-202,372
-162,046
-123,706
-91,038
-69,057
-59,867
-61,407
-70,904
-84,735
-98,797
-110,816
-119,98
-125,49
-126,708
-123,693
-116,878
-107,523
-97,796
-88,942
-81,29
-75,136
-70,511
-67,294
-65,364
-64,116
-62,583
-60,218
-56,779
-52,159
-46,439
-39,624
-31,666
-22,662
-12,763
-2,086
9,272
21,265
33,873
47,006
60,532
74,301
88,174
102,056
115,865
129,531
142,996
156,201
169,1
181,663
193,843
205,588
216,851
227,577
237,715
247,231
256,093
264,279
271,776
278,561
284,61
289,901
294,411
298,119
301,007
303,059
304,265
304,623
304,14
302,827
300,703
297,788
294,108
289,691
284,57
278,78
272,361
265,353
257,803
249,76
241,275
232,4
223,191
213,702
203,987
194,101
184,099
174,035
163,963
153,935
144,002
134,213
124,616
115,255
106,168
97,391
88,95
80,866
73,159
65,843
58,925
52,413
46,31
40,618
35,34
30,476
26,017
21,952
18,266
14,941
11,957
9,289
6,911
4,797
2,924
1,268
-0,193
-1,479
-2,625
-3,669
-4,657
-5,656
-6,722
-7,899
-9,238
-10,775
-12,532
-14,525
-16,741
-19,138
-21,686
-24,342
-27,062
-29,817
-32,555
-35,223
-37,76
-40,075
-42,099
-43,802
-45,168
-46,179
-46,829
-47,125
-47,154
-47,114
-47,234
-47,753
-48,866
-50,805
-53,892
-58,367
-64,32
-71,596
-79,662
-87,855
-95,611
-102,295
-107,197
-109,909
-110,381
-109,345
-108,583
-110,141
-115,873
-127,399
-145,951
-172,063
-205,244
-242,958
-280,473
-312,142
-332,156
-334,856
-315,093
-268,456
-191,494
-85,382
43,013
185,416
332,298
477,471
622,786
767,049
901,358
1011,893
1073,45
1061,288
969,075
798,413
562,382
293,328
19,011
-228,681
-412,869
-524,907
-568,462
-558,543
-523,899
-474,106
-411,407
-341,173
-269,937
-215,22
-191,291
-197,212
-219,196
-239,283
-245,629
-237,744
-224,407
-212,318
-203,512
-196,886
-188,499
-177,169
-164,376
-151,4
-139,814
-130,623
-123,72
-118,99
-116,232
-114,852
-114,364
-114,383
-114,524
-114,466
-113,933
-112,695
-110,567
-107,477
-103,391
-98,272
-92,113
-84,925
-76,762
-67,709
-57,881
-47,397
-36,363
-24,917
-13,197
-1,352
10,447
22,068
33,406
44,37
54,892
64,916
74,386
83,266
91,539
99,187
106,189
112,528
118,171
123,102
127,309
130,787
133,536
135,553
136,829
137,357
137,136
136,162
134,438
131,961
128,729
124,747
120,029
114,594
108,471
101,687
94,275
86,27
77,716
68,655
59,132
49,192
38,88
28,241
17,323
6,175
-5,152
-16,608
-28,142
-39,704
-51,242
-62,703
-74,037
-85,199
-96,145
-106,835
-117,232
-127,303
-137,018
-146,357
-155,297
-163,817
-171,898
-179,522
-186,674
-193,342
-199,515
-205,184
-210,35
-215,019
-219,202
-222,918
-226,186
-229,022
-231,445
-233,474
-235,124
-236,415
-237,36
-237,971
-238,276
-238,313
-238,135
-237,812
-237,397
-236,922
-236,429
-235,953
-235,515
-235,126
-234,758
-234,352
-233,884
-233,35
-232,773
-232,202
-231,651
-231,113
-230,577
-230,012
-229,416
-228,802
-228,137
-227,356
-226,421
-225,352
-224,304
-223,552
-223,304
-223,71
-224,82
-226,701
-229,563
-233,448
-238,206
-243,46
-248,489
-252,705
-255,919
-257,874
-258,209
-257,041
-254,648
-251,96
-251,073
-253,671
-260,748
-273,281
-291,526
-314,693
-341,506
-368,872
-391,647
-405,377
-406,356
-390,744
-356,095
-301,884
-228,451
-140,973
-49,558
39,556
121,504
192,889
256,764
306,662
329,649
318,486
260,781
157,065
22,564
-133,683
-290,464
-426,748
-534,161
-598,195
-619,791
-613,899
-589,008
-558,889
-530,543
-499,109
-465,498
-431,365
-398,421
-372,404
-355,462
-346,339
-343,651
-344,988
-347,567
-349,453
-349,508
-347,1
-342,462
-336,37
-329,433
-322,218
-315,445
-309,688
-305,215
-302,061
-299,892
-298,184
-296,478
-294,381
-291,627
-288,05
-283,535
-278,017
-271,442
-263,8
-255,121
-245,434
-234,751
-223,086
-210,451
-196,885
-182,5
-167,426
-151,804
-135,787
-119,469
-102,921
-86,216
-69,415
-52,578
-35,762
-19,002
-2,327
14,21
30,545
46,612
62,346
77,702
92,641
107,125
121,114
134,57
147,452
159,72
171,339
182,266
192,461
201,886
210,505
218,291
225,228
231,306
236,52
240,871
244,365
247,013
248,831
249,841
250,066
249,535
248,279
246,338
243,755
240,576
236,852
232,635
227,979
222,938
217,569
211,931
206,081
200,077
193,978
187,843
181,73
175,697
169,797
164,082
158,598
153,387
148,486
143,927
139,736
135,93
132,529
129,548
126,998
124,888
123,226
122,013
121,25
120,933
121,05
121,584
122,51
123,801
125,428
127,365
129,58
132,048
134,737
137,618
140,666
143,855
147,146
150,493
153,836
157,109
160,262
163,255
166,048
168,614
170,943
173,048
174,976
176,789
178,529
180,217
181,848
183,402
184,878
186,292
187,659
189,01
190,368
191,756
193,245
194,919
196,785
198,761
200,657
202,208
203,212
203,572
203,173
201,877
199,719
196,859
193,643
190,686
188,462
187,198
187,18
188,581
191,098
194,276
197,346
198,918
198
193,994
186,047
174,053
159,091
142,708
127,351
116,518
113,126
119,664
139,273
174,158
224,433
288,875
364,86
445,821
525,292
600,119
663,67
713,965
751,571
766,935
755,494
713,097
634,359
531,381
417,922
306,309
211,339
135,641
79,006
42,527
24,036
24,069
41,237
70,545
106,889
143,893
176,761
203,359
222,344
233,54
237,964
236,977
232,729
228,098
224,901
223,998
225,818
230,044
236,133
243,551
251,421
258,731
264,977
269,991
273,812
276,797
279,271
281,54
284,005
286,953
290,509
294,71
299,517
304,866
310,756
317,199
324,181
331,704
339,755
348,315
357,367
366,853
376,671
386,686
396,746
406,749
416,628
426,33
435,817
445,045
453,973
462,575
470,838
478,728
486,209
493,239
499,774
505,788
511,264
516,196
520,579
524,408
527,674
530,371
532,494
534,035
534,987
535,34
535,082
534,213
532,738
530,667
528,017
524,805
521,05
516,778
512,014
506,786
501,124
495,056
488,613
481,829
474,741
467,388
459,809
452,044
444,132
436,113
428,024
419,902
411,785
403,708
395,705
387,81
380,059
372,485
365,121
357,996
351,135
344,562
338,296
332,352
326,737
321,453
316,501
311,881
307,591
303,628
299,988
296,665
293,651
290,942
288,526
286,387
284,501
282,839
281,375
280,079
278,925
277,887
276,936
276,043
275,185
274,345
273,497
272,607
271,623
270,483
269,13
267,524
265,633
263,424
260,876
257,986
254,787
251,349
247,749
244,039
240,236
236,333
232,328
228,231
224,06
219,834
215,552
211,211
206,835
202,498
198,248
194,045
189,755
185,119
179,841
173,739
166,646
158,345
148,785
138,066
126,444
114,501
102,817
91,721
81,613
72,882
65,367
58,668
52,023
43,971
33,413
19,726
2,028
-20,181
-46,157
-74,532
-102,953
-127,58
-145,022
-152,373
-146,17
-123,799
-84,595
-29,081
40,525
119,586
202,899
284,795
358,205
416,415
454,558
468,952
457,325
419,918
358,873
278,138
184,093
84,122
-15,219
-107,771
-187,424
-249,539
-291,59
-313,121
-316,145
-304,314
-281,334
-251,261
-219,118
-189,56
-165,821
-149,777
-141,717
-140,791
-145,941
-155,662
-167,63
-179,501
-189,723
-197,46
-202,638
-205,68
-207,015
-207,179
-206,932
-206,997
-207,722
-209,108
-210,873
-212,548
-213,782
-214,361
-214,118
-212,956
-210,862
-207,88
-204,106
-199,678
-194,667
-189,063
-182,844
-175,987
-168,507
-160,479
-152,005
-143,211
-134,221
-125,143
-116,065
-107,054
-98,158
-89,411
-80,836
-72,448
-64,272
-56,358
-48,768
-41,57
-34,821
-28,569
-22,853
-17,704
-13,152
-9,219
-5,927
-3,294
-1,341
-0,089
0,439
0,219
-0,766
-2,527
-5,069
-8,389
-12,481
-17,335
-22,937
-29,265
-36,299
-44,011
-52,373
-61,356
-70,925
-81,045
-91,677
-102,777
-114,3
-126,203
-138,439
-150,963
-163,728
-176,688
-189,794
-203,001
-216,264
-229,537
-242,778
-255,94
-268,982
-281,866
-294,557
-307,022
-319,234
-331,165
-342,797
-354,117
-365,112
-375,775
-386,094
-396,063
-405,678
-414,937
-423,84
-432,386
-440,578
-448,425
-455,942
-463,148
-470,064
-476,707
-483,095
-489,242
-495,164
-500,883
-506,414
-511,764
-516,954
-522,013
-526,99
-531,948
-536,939
-541,998
-547,156
-552,44
-557,872
-563,453
-569,152
-574,897
-580,622
-586,28
-591,864
-597,393
-602,853
-608,212
-613,422
-618,425
-623,212
-627,78
-632,07
-635,982
-639,458
-642,526
-645,367
-648,261
-651,437
-655,039
-659,199
-664,13
-670,022
-676,842
-684,296
-691,871
-699,054
-705,516
-710,97
-714,933
-717,145
-717,939
-718,213
-719,379
-722,649
-729,191
-740,599
-758,178
-782,582
-811,513
-839,375
-862,747
-879,629
-890,21
-898,274
-897,578
-877,35
-830,763
-747,369
-630,61
-492,859
-340,238
-189,743
-60,253
30,887
61,213
24,292
-67,278
-191,559
-325,962
-462,134
-605,303
-761,072
-921,97
-1062,429
-1153,454
-1179,512
-1145,478
-1076,207
-998,83
-929,164
-871,825
-821,686
-774,53
-731,529
-696,651
-675,68
-670,404
-678,374
-695,421
-716,028
-735,949
-753,045
-765,761
-772,789
-773,795
-769,189
-760,097
-748,574
-736,565
-725,049
-714,522
-705,35
-697,474
-690,646
-684,59
-678,653
-672,118
-664,701
-656,271
-646,751
-636,259
-624,861
-612,551
-599,436
-585,64
-571,209
-556,226
-540,77
-524,893
-508,709
-492,319
-475,78
-459,164
-442,525
-425,899
-409,335
-392,863
-376,502
-360,297
-344,309
-328,602
-313,241
-298,278
-283,75
-269,696
-256,149
-243,139
-230,69
-218,822
-207,553
-196,908
-186,915
-177,602
-168,993
-161,102
-153,937
-147,501
-141,791
-136,801
-132,52
-128,929
-126,007
-123,733
-122,083
-121,029
-120,542
-120,588
-121,128
-122,122
-123,526
-125,296
-127,381
-129,735
-132,306
-135,046
-137,906
-140,836
-143,785
-146,705
-149,549
-152,271
-154,827
-157,172
-159,268
-161,079
-162,577
-163,739
-164,546
-164,979
-165,027
-164,682
-163,938
-162,791
-161,235
-159,265
-156,88
-154,089
-150,906
-147,345
-143,424
-139,163
-134,589
-129,731
-124,616
-119,267
-113,704
-107,944
-102,016
-95,956
-89,812
-83,651
-77,527
-71,487
-65,58
-59,851
-54,327
-49,031
-43,956
-39,067
-34,342
-29,752
-25,272
-20,892
-16,574
-12,286
-7,993
-3,619
0,889
5,536
10,33
15,254
20,259
25,361
30,501
35,499
40,209
44,439
47,978
50,72
52,449
52,813
51,621
48,842
44,606
39,463
34,087
29,028
25,056
23,007
23,319
25,983
30,385
35,165
38,212
37,185
30,235
15,443
-6,549
-31,53
-57,507
-82,754
-106,591
-132,822
-154,668
-156,267
-122,752
-36,473
101,05
267,431
442,474
603,051
742,605
875,683
1003,438
1121,722
1213,779
1241,727
1187,913
1049,282
831,341
567,575
290,116
28,501
-179,887
-317,264
-381,021
-377,748
-328,582
-252,13
-159,079
-61,224
27,593
95,17
131,626
138,005
129,166
118,296
113,23
114,723
114,202
106,859
93,894
78,196
65,484
59,425
59,81
65,642
75,262
86,533
97,848
108,33
117,316
124,336
129,452
132,867
134,906
136,369
138,074
140,417
143,649
147,898
153,097
159,264
166,41
174,397
183,087
192,402
202,277
212,689
223,608
234,934
246,529
258,253
269,98
281,627
293,122
304,399
315,402
326,078
336,391
346,318
355,823
364,862
373,394
381,375
388,773
395,572
401,758
407,329
412,284
416,618
420,326
423,401
425,831
427,612
428,736
429,199
429,001
428,15
426,656
424,541
421,827
418,537
414,7
410,346
405,507
400,219
394,517
388,439
382,022
375,307
368,332
361,14
353,772
346,269
338,674
331,028
323,374
315,753
308,208
300,775
293,492
286,394
279,51
272,87
266,498
260,416
254,644
249,197
244,087
239,327
234,927
230,895
227,236
223,951
221,038
218,494
216,317
214,5
213,033
211,902
211,094
210,595
210,394
210,477
210,827
211,424
212,244
213,26
214,452
215,788
217,232
218,733
220,224
221,645
222,959
224,137
225,172
226,072
226,845
227,517
228,135
228,739
229,359
230,011
230,671
231,326
231,992
232,722
233,626
234,841
236,428
238,403
240,737
243,303
245,951
248,53
250,75
252,26
252,911
252,727
251,968
251,203
250,892
251,195
252,367
254,709
258,001
261,726
264,876
265,601
262,414
254,567
241,178
221,686
196,826
167,928
137,428
109,651
88,524
77,19
79,369
98,433
135,66
191,006
262,96
344,963
430,188
514,971
592,352
659,235
714,436
747,218
750,999
720,112
648,557
547,259
428,539
304,201
189,392
87,573
1,363
-64,574
-110,077
-132,852
-132,332
-112,623
-78,49
-35,577
9,43
51,11
86,186
112,724
130,266
139,797
142,808
141,137
137,488
134,428
133,355
134,918
138,963
144,776
151,744
159,249
166,474
172,704
177,594
181,11
183,558
185,412
187,075
188,887
191,07
193,771
197,077
201,015
205,601
210,812
216,597
222,913
229,738
237,05
244,83
253,036
261,559
270,28
279,074
287,806
296,397
304,793
312,935
320,783
328,297
335,443
342,207
348,583
354,544
360,055
365,078
369,581
373,548
376,973
379,845
382,159
383,907
385,08
385,675
385,687
385,109
383,933
382,153
379,763
376,766
373,17
368,984
364,226
358,912
353,064
346,706
339,868
332,578
324,869
316,774
308,328
299,568
290,535
281,269
271,809
262,196
252,472
242,68
232,862
223,06
213,315
203,668
194,163
184,837
175,727
166,865
158,283
150,006
142,057
134,452
127,203
120,32
113,812
107,686
101,946
96,596
91,639
87,074
82,904
79,122
75,715
72,662
69,938
67,518
65,374
63,48
61,811
60,336
59,028
57,865
56,831
55,904
55,052
54,223
53,352
52,386
51,301
50,075
48,689
47,127
45,386
43,489
41,505
39,5
37,515
35,559
33,6
31,62
29,619
27,617
25,654
23,726
21,785
19,807
17,795
15,775
13,757
11,658
9,255
6,3
2,606
-1,96
-7,42
-13,798
-21,208
-29,601
-38,777
-48,36
-57,739
-66,352
-73,906
-80,25
-85,21
-89,001
-91,973
-94,496
-97,551
-102,129
-108,83
-118,007
-129,529
-142,176
-154,226
-164,196
-169,859
-168,807
-159,048
-138,597
-105,917
-61,107
-5,864
58,15
126,69
192,947
253,052
303,287
342,435
375,137
398,904
406,253
387,622
328,198
225,518
89,221
-61,946
-198,998
-301,872
-359,74
-374,75
-363,857
-340,112
-315,087
-293,88
-271,456
-247,554
-222,942
-199
-181,368
-172,174
-170,382
-174,834
-182,569
-190,367
-196,905
-201,398
-203,303
-202,983
-200,945
-197,652
-193,966
-190,835
-188,68
-187,654
-187,693
-188,402
-189,394
-190,304
-190,786
-190,618
-189,7
-188,033
-185,65
-182,607
-178,94
-174,666
-169,781
-164,282
-158,169
-151,447
-144,167
-136,419
-128,322
-120,041
-111,7
-103,375
-95,128
-86,998
-79,019
-71,233
-63,664
-56,322
-49,239
-42,461
-36,035
-30,015
-24,442
-19,335
-14,714
-10,587
-6,962
-3,852
-1,267
0,784
2,288
3,234
3,609
3,397
2,59
1,192
-0,793
-3,35
-6,461
-10,109
-14,269
-18,914
-24,015
-29,543
-35,465
-41,748
-48,354
-55,245
-62,377
-69,706
-77,186
-84,769
-92,409
-100,061
-107,68
-115,22
-122,638
-129,893
-136,941
-143,745
-150,266
-156,466
-162,308
-167,763
-172,801
-177,401
-181,541
-185,209
-188,396
-191,098
-193,318
-195,056
-196,315
-197,101
-197,421
-197,285
-196,703
-195,69
-194,261
-192,437
-190,248
-187,725
-184,903
-181,813
-178,486
-174,952
-171,243
-167,396
-163,442
-159,404
-155,314
-151,208
-147,142
-143,184
-139,389
-135,792
-132,425
-129,317
-126,495
-123,972
-121,726
-119,696
-117,815
-116,035
-114,344
-112,766
-111,297
-109,916
-108,59
-107,277
-105,982
-104,72
-103,463
-102,123
-100,635
-99,011
-97,377
-96,003
-95,152
-94,986
-95,66
-97,352
-100,135
-103,941
-108,507
-113,271
-117,625
-121,215
-123,652
-124,556
-124,078
-122,698
-121,32
-121,397
-124,085
-130,035
-140,088
-155,023
-174,375
-196,649
-219,147
-238,073
-250,356
-253,46
-244,293
-219,69
-177,952
-119,354
-46,424
36,627
125,837
216,802
303,579
379,382
437,904
474,217
485,294
469,756
426,609
358,573
272,862
174,671
68,785
-42,518
-161,838
-280,451
-382,217
-453,488
-478,533
-457,868
-407,906
-343,04
-280,351
-229,128
-186,152
-150,017
-119,576
-95,359
-82,044
-81,013
-89,658
-103,618
-118,252
-130,861
-140,527
-146,73
-148,726
-146,249
-140,239
-132,636
-125,195
-118,843
-113,724
-109,643
-106,604
-104,551
-103,111
-101,634
-99,505
-96,437
-92,397
-87,474
-81,718
-75,129
-67,728
-59,607
-50,865
-41,56
-31,762
-21,538
-10,978
-0,226
10,605
21,444
32,229
42,914
53,467
63,847
74,032
84,019
93,772
103,242
112,375
121,112
129,412
137,253
144,608
151,453
157,772
163,551
168,777
173,438
177,515
180,986
183,83
186,028
187,571
188,456
188,685
188,266
187,211
185,537
183,264
180,418
177,024
173,107
168,697
163,825
158,523
152,829
146,782
140,423
133,794
126,941
119,906
112,737
105,477
98,173
90,87
83,611
76,438
69,392
62,512
55,834
49,394
43,219
37,334
31,758
26,511
21,607
17,057
12,866
9,039
5,58
2,497
-0,211
-2,546
-4,519
-6,144
-7,438
-8,416
-9,1
-9,517
-9,693
-9,654
-9,421
-9,004
-8,424
-7,713
-6,908
-6,063
-5,226
-4,432
-3,719
-3,12
-2,651
-2,323
-2,122
-2,001
-1,932
-1,892
-1,853
-1,814
-1,745
-1,602
-1,362
-0,978
-0,412
0,353
1,34
2,533
3,857
5,211
6,491
7,558
8,296
8,57
8,177
6,935
4,653
1,188
-3,583
-9,896
-17,843
-27,307
-37,939
-48,949
-59,433
-68,721
-76,088
-80,652
-82,131
-80,716
-77,143
-73,469
-71,736
-73,299
-79,704
-92,072
-110,116
-132,525
-156,504
-176,718
-187,77
-185,163
-163,626
-118,798
-48,27
49,181
169,694
303,319
440,031
569,551
687,398
797,104
897,617
985,256
1043,756
1043,364
964,447
794,557
544,77
256,929
-25,274
-255,673
-404,042
-473,652
-478,38
-440,284
-381,107
-307,703
-227,651
-153,446
-95,242
-62,389
-54,391
-57,411
-59,272
-54,492
-44,075
-36,389
-36,528
-42,995
-52,42
-60,247
-63,669
-62,323
-56,767
-48,023
-37,437
-26,76
-17,058
-8,637
-1,703
3,718
7,735
10,44
12,343
14,411
17,24
21,115
26,182
32,362
39,645
48,101
57,665
68,18
79,52
91,57
104,255
117,567
131,425
145,704
160,263
174,929
189,57
204,09
218,401
232,432
246,117
259,393
272,207
284,523
296,295
307,481
318,034
327,895
337,022
345,383
352,954
359,725
365,682
370,802
375,066
378,457
380,96
382,566
383,265
383,048
381,914
379,87
376,93
373,118
368,46
362,986
356,729
349,73
342,03
333,676
324,718
315,208
305,199
294,748
283,909
272,744
261,312
249,674
237,89
226,023
214,13
202,272
190,508
178,894
167,481
156,319
145,45
134,913
124,744
114,972
105,624
96,722
88,281
80,312
72,829
65,839
59,347
53,359
47,868
42,864
38,338
34,279
30,667
27,485
24,704
22,295
20,229
18,479
17,023
15,852
14,942
14,261
13,764
13,387
13,077
12,792
12,484
12,099
11,593
10,925
10,084
9,12
8,084
7,011
5,914
4,731
3,391
1,896
0,305
-1,292
-2,84
-4,36
-5,928
-7,478
-8,815
-9,878
-10,87
-12,331
-14,89
-18,859
-24,08
-30,306
-37,685
-46,214
-55,427
-64,207
-70,817
-74,05
-73,981
-71,254
-65,992
-58,641
-50,362
-43,02
-39,973
-44,564
-57,845
-79,656
-110,563
-148,024
-188,322
-230,113
-267,576
-298,155
-322,157
-330,031
-314,417
-267,134
-179,761
-61,254
74,846
212,964
336,476
442,444
533,733
613,542
683,239
733,394
744,66
698,344
583,676
404,439
185,746
-37,972
-233,072
-375,024
-460,002
-497,899
-506,356
-501,304
-487,915
-464,894
-427,146
-373,428
-309,429
-243,714
-185,347
-139,737
-108,637
-92,074
-88,607
-95,879
-110,834
-129,337
-147,453
-162,695
-173,24
-178,152
-177,415
-171,517
-161,669
-149,843
-138,007
-127,345
-118,617
-112,062
-107,468
-104,603
-103,002
-101,957
-100,75
-98,904
-96,182
-92,554
-88,129
-82,967
-77,127
-70,699
-63,79
-56,513
-48,929
-41,096
-33,065
-24,911
-16,751
-8,688
-0,804
6,835
14,185
21,216
27,896
34,197
40,102
45,575
50,579
55,084
59,049
62,444
65,248
67,445
69,03
70,003
70,361
70,098
69,207
67,678
65,505
62,682
59,203
55,069
50,286
44,866
38,825
32,186
24,971
17,208
8,926
0,156
-9,068
-18,71
-28,73
-39,09
-49,746
-60,655
-71,773
-83,053
-94,45
-105,913
-117,397
-128,853
-140,233
-151,488
-162,572
-173,441
-184,056
-194,379
-204,375
-214,013
-223,269
-232,124
-240,56
-248,56
-256,108
-263,192
-269,802
-275,929
-281,566
-286,706
-291,35
-295,504
-299,183
-302,407
-305,198
-307,578
-309,571
-311,201
-312,491
-313,467
-314,15
-314,555
-314,703
-314,627
-314,375
-314,016
-313,605
-313,175
-312,755
-312,371
-312,042
-311,781
-311,568
-311,342
-311,049
-310,659
-310,17
-309,622
-309,043
-308,435
-307,786
-307,067
-306,273
-305,441
-304,588
-303,696
-302,746
-301,735
-300,753
-300,025
-299,784
-300,209
-301,427
-303,461
-306,377
-310,315
-315,232
-320,941
-327,091
-333,072
-338,411
-342,856
-346,007
-347,513
-347,433
-345,954
-343,7
-341,967
-341,696
-343,645
-348,906
-357,811
-369,687
-383,321
-396,39
-405,675
-408,466
-401,902
-382,423
-347,844
-297,67
-232,724
-156,066
-72,296
13,922
97,15
169,862
224,773
256,545
260,705
237,216
190,968
123,959
37,709
-65,849
-188,724
-321,903
-446,519
-545,337
-599,387
-606,372
-581,588
-539,671
-497,738
-463,173
-431,329
-401,411
-372,52
-345,427
-325,383
-313,68
-308,836
-309,376
-312,059
-314,061
-314,482
-312,802
-308,964
-303,619
-297,347
-290,638
-284,222
-278,798
-274,631
-271,733
-269,863
-268,531
-267,295
-265,813
-263,833
-261,178
-257,751
-253,503
-248,39
-242,436
-235,694
-228,203
-219,99
-211,072
-201,469
-191,229
-180,466
-169,308
-157,888
-146,345
-134,767
-123,213
-111,746
-100,414
-89,257
-78,313
-67,601
-57,13
-46,937
-37,065
-27,558
-18,457
-9,787
-1,56
6,204
13,492
20,29
26,579
32,346
37,577
42,253
46,356
49,872
52,783
55,085
56,779
57,871
58,37
58,292
57,651
56,467
54,764
52,565
49,895
46,781
43,251
39,335
35,068
30,485
25,623
20,519
15,212
9,736
4,132
-1,564
-7,315
-13,082
-18,831
-24,524
-30,125
-35,599
-40,914
-46,038
-50,943
-55,608
-60,012
-64,142
-67,988
-71,545
-74,809
-77,776
-80,446
-82,818
-84,893
-86,672
-88,155
-89,348
-90,262
-90,91
-91,316
-91,505
-91,495
-91,309
-90,966
-90,482
-89,881
-89,18
-88,386
-87,514
-86,588
-85,647
-84,752
-83,956
-83,282
-82,751
-82,375
-82,156
-82,104
-82,194
-82,361
-82,543
-82,682
-82,745
-82,759
-82,746
-82,689
-82,565
-82,317
-81,913
-81,41
-80,838
-80,201
-79,497
-78,701
-77,897
-77,314
-77,187
-77,743
-79,164
-81,479
-84,765
-89,198
-94,751
-101,286
-108,483
-115,638
-122,173
-127,749
-131,917
-134,363
-135,186
-134,606
-133,282
-132,515
-133,34
-136,638
-143,496
-154,213
-168,045
-183,522
-198,152
-208,74
-212,336
-205,971
-186,301
-150,735
-98,214
-29,79
51,671
140,394
228,346
310,157
380,471
436,881
482,517
513,198
521,432
497,533
426,981
308,865
153,637
-18,051
-174,982
-295,768
-367,816
-392,348
-386,063
-361,059
-327,565
-290,429
-245,427
-193,905
-139,915
-87,732
-44,323
-13,76
2,585
5,149
-3,302
-18,615
-36,111
-52,652
-66,727
-76,891
-81,651
-80,657
-74,353
-64,027
-52,647
-40,492
-24,604
-6,131
11,866
24,236
21,004
3,248
-18,147
-32,103
-24,151
6,078
45,129
81,912
106,564
121,354
135,216
150,485
165,152
168,877
158,468
143,394
135,109
149,611
188,08
235,377
279,169
306,463
315,435
317,454
319,348
325,907
338,4
352,152
365,176
377,601
389,203
400,648
412,066
422,809
432,688
441,789
450,06
457,443
463,94
469,561
474,359
478,439
481,836
484,505
486,443
487,671
488,21
488,087
487,321
485,919
483,901
481,301
478,155
474,496
470,36
465,784
460,807
455,473
449,824
443,904
437,75
431,404
424,905
418,289
411,596
404,86
398,114
391,391
384,722
378,137
371,663
365,322
359,129
353,098
347,238
341,552
336,039
330,698
325,523
320,507
315,648
310,94
306,377
301,954
297,661
293,48
289,398
285,391
281,434
277,504
273,577
269,631
265,651
261,62
257,521
253,349
249,088
244,714
240,194
235,476
230,509
225,272
219,745
213,915
207,787
201,366
194,674
187,785
180,761
173,657
166,532
159,387
152,224
145,085
138,024
131,12
124,446
117,993
111,734
105,688
99,867
94,299
88,947
83,591
77,988
71,92
65,179
57,715
49,434
40,052
29,473
17,793
5,345
-7,047
-18,623
-29,069
-37,935
-44,672
-49,269
-51,859
-53,36
-55,998
-61,6
-71,314
-86,341
-107,182
-133,1
-162,767
-192,912
-217,974
-232,992
-233,72
-215,775
-176,019
-113,112
-27,017
77,126
189,092
299,843
402,067
493,086
574,047
641,069
684,745
690,472
643,679
539,424
381,042
183,489
-29,113
-232,086
-397,107
-505,338
-553,892
-548,611
-509,636
-453,767
-388,132
-321,945
-255,322
-193,096
-146,268
-113,029
-94,854
-90,597
-91,629
-99,688
-114,249
-130,654
-148,871
-165,023
-174,917
-178,531
-175,859
-167,668
-156,417
-144,395
-132,759
-122,428
-114,006
-107,31
-102,097
-98,103
-94,581
-90,68
-85,991
-80,269
-73,378
-65,45
-56,546
-46,679
-35,974
-24,559
-12,499
0,152
13,331
26,996
41,042
55,319
69,724
84,177
98,604
112,959
127,192
141,255
155,118
168,762
182,144
195,203
207,881
220,11
231,844
243,048
253,691
263,745
273,19
282,005
290,173
297,673
304,479
310,561
315,894
320,452
324,217
327,184
329,346
330,707
331,273
331,053
330,064
328,326
325,858
322,682
318,821
314,306
309,168
303,447
297,182
290,417
283,199
275,577
267,605
259,335
250,821
242,116
233,273
224,344
215,383
206,443
197,572
188,819
180,232
171,857
163,739
155,917
148,425
141,291
134,539
128,191
122,266
116,775
111,728
107,129
102,983
99,299
96,079
93,32
91,01
89,13
87,661
86,582
85,868
85,49
85,414
85,606
86,04
86,699
87,558
88,582
89,723
90,915
92,105
93,251
94,309
95,244
96,027
96,637
97,083
97,403
97,626
97,774
97,85
97,844
97,77
97,665
97,569
97,542
97,618
97,811
98,152
98,635
99,203
99,767
100,195
100,329
100,049
99,219
97,66
95,234
91,803
87,27
81,53
74,323
65,483
55,078
43,438
31,233
19,169
7,713
-2,545
-10,65
-15,954
-18,432
-18,907
-19,19
-20,764
-24,61
-32,099
-44,757
-63,68
-86,574
-107,136
-119,364
-120,102
-113,154
-105,87
-97,329
-76,496
-25,237
71,813
214,559
385,921
561,88
726,639
871,543
994,418
1093,129
1145,864
1128,806
1025,734
827,338
558,619
262,091
-18,155
-233,783
-366,299
-423,131
-424,056
-403,848
-381,932
-360,789
-337,394
-300,485
-248,263
-189,234
-131,988
-86,436
-57,916
-45,704
-47,836
-61,509
-82,982
-108,596
-135,015
-158,714
-177,039
-188,973
-194,257
-193,279
-187,377
-178,114
-167,036
-156,032
-146,433
-138,723
-133,09
-129,289
-126,729
-124,876
-123,156
-120,846
-117,502
-112,964
-107,153
-100,182
-92,203
-83,286
-73,535
-63,092
-52,044
-40,463
-28,439
-16,038
-3,366
9,422
22,201
34,856
47,287
59,419
71,183
82,515
93,365
103,696
113,459
122,604
131,08
138,837
145,835
152,049
157,455
162,044
165,807
168,74
170,836
172,09
172,496
172,052
170,757
168,612
165,627
161,818
157,207
151,822
145,695
138,86
131,358
123,232
114,528
105,291
95,574
85,428
74,91
64,075
52,981
41,683
30,238
18,702
7,133
-4,415
-15,889
-27,236
-38,403
-49,341
-60
-70,339
-80,315
-89,894
-99,043
-107,736
-115,953
-123,678
-130,901
-137,613
-143,805
-149,473
-154,617
-159,237
-163,336
-166,919
-169,995
-172,584
-174,71
-176,406
-177,703
-178,633
-179,226
-179,512
-179,523
-179,291
-178,841
-178,191
-177,367
-176,411
-175,381
-174,354
-173,392
-172,525
-171,783
-171,192
-170,774
-170,542
-170,474
-170,506
-170,583
-170,679
-170,802
-171,002
-171,294
-171,66
-172,066
-172,443
-172,779
-173,118
-173,457
-173,769
-174,033
-174,225
-174,453
-174,979
-176,021
-177,764
-180,324
-183,664
-187,891
-193,206
-199,592
-206,917
-214,73
-222,204
-228,79
-234,211
-238,002
-239,877
-239,888
-238,184
-235,904
-235,023
-236,985
-243,03
-254,224
-270,506
-290,981
-314,026
-336,124
-352,645
-359,565
-353,023
-329,235
-286,047
-223,257
-142,108
-48,416
48,197
141,491
226,239
299,106
362,635
411,658
434,986
422,985
361,731
247,405
90,317
-93,931
-279,025
-437,278
-550,981
-612,03
-627,404
-615,597
-591,941
-565,091
-535,722
-497,448
-448,962
-394,668
-340,227
-293,122
-257,146
-232,288
-218,746
-215,519
-219,986
-229,539
-241,53
-253,159
-263,15
-270,899
-275,13
-275,274
-271,724
-265,151
-256,83
-248,307
-240,145
-232,505
-225,789
-220
-215,043
-210,863
-206,936
-202,582
-197,501
-191,566
-184,726
-177,131
-168,835
-159,826
-150,228
-140,209
-129,907
-119,462
-108,957
-98,438
-87,953
-77,557
-67,309
-57,271
-47,487
-37,983
-28,773
-19,869
-11,303
-3,121
4,639
11,942
18,765
25,088
30,889
36,146
40,846
44,977
48,536
51,518
53,913
55,713
56,909
57,491
57,462
56,827
55,598
53,79
51,424
48,522
45,113
41,227
36,892
32,141
27,009
21,529
15,743
9,692
3,419
-3,03
-9,607
-16,265
-22,961
-29,647
-36,283
-42,827
-49,237
-55,475
-61,505
-67,293
-72,807
-78,018
-82,897
-87,419
-91,567
-95,325
-98,685
-101,639
-104,184
-106,322
-108,059
-109,406
-110,374
-110,974
-111,217
-111,12
-110,707
-110,002
-109,033
-107,827
-106,416
-104,837
-103,127
-101,323
-99,45
-97,53
-95,584
-93,636
-91,707
-89,826
-88,018
-86,308
-84,731
-83,329
-82,15
-81,246
-80,646
-80,35
-80,348
-80,633
-81,202
-82,048
-83,141
-84,435
-85,91
-87,559
-89,387
-91,386
-93,491
-95,618
-97,674
-99,551
-101,171
-102,486
-103,45
-104,054
-104,324
-104,279
-104,051
-103,805
-103,61
-103,607
-103,877
-104,307
-104,894
-105,552
-105,887
-105,622
-104,508
-101,968
-97,786
-92,363
-85,975
-79,284
-73,895
-71,3
-72,806
-80,289
-92,884
-106,524
-120,332
-133,836
-147,891
-168,075
-188,909
-196,725
-179,841
-123,988
-30,311
83,378
200,988
304,864
384,339
440,459
472,641
479,164
460,142
414,296
340,869
244,401
128,356
-2,53
-133,531
-252,366
-345,878
-401,711
-424,668
-420,376
-394,808
-358,626
-312,573
-258,888
-204,055
-151,127
-105,688
-72,467
-52,731
-47,013
-53,752
-69,418
-89,784
-110,868
-130,073
-145,801
-156,717
-162,15
-162,112
-157,359
-149,785
-141,481
-133,54
-126,477
-120,578
-115,742
-111,93
-109,078
-106,628
-103,888
-100,51
-96,321
-91,301
-85,63
-79,356
-72,453
-65,006
-57,11
-48,862
-40,382
-31,767
-23,086
-14,414
-5,809
2,681
11,004
19,121
27,008
34,653
42,061
49,217
56,08
62,601
68,726
74,419
79,661
84,435
88,728
92,53
95,833
98,637
100,95
102,774
104,103
104,931
105,245
105,042
104,328
103,116
101,419
99,254
96,64
93,602
90,167
86,364
82,218
77,755
72,998
67,976
62,718
57,255
51,621
45,85
39,977
34,039
28,072
22,111
16,189
10,334
4,574
-1,064
-6,559
-11,887
-17,028
-21,963
-26,672
-31,137
-35,343
-39,276
-42,925
-46,285
-49,353
-52,13
-54,621
-56,831
-58,771
-60,452
-61,885
-63,08
-64,046
-64,796
-65,343
-65,706
-65,9
-65,939
-65,84
-65,625
-65,312
-64,924
-64,478
-63,983
-63,451
-62,895
-62,327
-61,764
-61,222
-60,707
-60,236
-59,834
-59,541
-59,412
-59,494
-59,808
-60,362
-61,151
-62,151
-63,334
-64,655
-66,039
-67,42
-68,758
-70,027
-71,24
-72,417
-73,512
-74,445
-75,089
-75,289
-74,952
-74,048
-72,567
-70,592
-68,274
-65,762
-63,364
-61,481
-60,253
-59,632
-59,338
-58,763
-57,496
-55,452
-52,378
-47,952
-42,436
-36,419
-31,101
-28,51
-30,047
-36,356
-48,245
-66,245
-89,762
-117,487
-146,734
-173,126
-192,968
-203,165
-200,108
-180,721
-143,356
-87,724
-15,997
67,103
156,869
247,637
331,982
402,586
452,311
476,916
476,917
451,904
400,751
322,066
211,874
78,4
-59,591
-183,534
-271,281
-316,772
-331,77
-326,753
-315,187
-303,317
-285,603
-261,285
-232,485
-202,309
-177,44
-161,253
-153,446
-152,995
-157,84
-165,551
-173,657
-180,362
-184,621
-185,998
-184,932
-182,057
-177,913
-173,351
-169,336
-166,372
-164,685
-164,249
-164,662
-165,559
-166,618
-167,43
-167,715
-167,355
-166,3
-164,583
-162,272
-159,363
-155,835
-151,695
-146,926
-141,526
-135,51
-128,888
-121,712
-114,079
-106,124
-97,991
-89,778
-81,548
-73,342
-65,193
-57,135
-49,201
-41,411
-33,773
-26,314
-19,068
-12,072
-5,369
1,018
7,077
12,802
18,192
23,244
27,949
32,304
36,302
39,935
43,195
46,069
48,541
50,607
52,264
53,517
54,375
54,847
54,946
54,688
54,091
53,172
51,951
50,445
48,674
46,662
44,433
42,012
39,429
36,714
33,899
31,015
28,093
25,162
22,248
19,381
16,585
13,886
11,306
8,869
6,597
4,513
2,639
0,993
-0,407
-1,55
-2,424
-3,024
-3,348
-3,401
-3,186
-2,71
-1,977
-0,994
0,234
1,703
3,407
5,341
7,498
9,862
12,413
15,124
17,971
20,929
23,977
27,094
30,26
33,454
36,666
39,893
43,122
46,324
49,456
52,454
55,271
57,887
60,285
62,451
64,375
66,065
67,565
68,961
70,33
71,722
73,139
74,546
75,94
77,34
78,786
80,343
82,006
83,723
85,486
87,314
89,222
91,218
93,155
94,718
95,659
95,797
95,031
93,386
90,731
86,805
81,594
75,318
68,424
61,609
55,373
49,904
45,576
42,88
41,906
42,291
43,118
43,022
40,416
33,899
22,815
6,644
-12,398
-28,645
-39,4
-43,169
-40,8
-38,467
-32,08
-9,841
38,367
124,819
244,536
375,727
498,966
593,392
649,01
670,331
659,268
618,638
552,002
460,018
347,681
223,703
97,028
-23,021
-127,428
-209,592
-266,427
-297,282
-303,583
-288,511
-256,094
-211,37
-161,428
-113,483
-72,008
-39,517
-17,141
-5,025
-3,264
-10,903
-24,625
-40,088
-54,446
-66,188
-74,751
-80,058
-81,495
-78,833
-73,208
-66,53
-60,151
-54,676
-50,077
-46,013
-42,519
-39,644
-37,046
-34,115
-30,333
-25,459
-19,484
-12,535
-4,645
4,225
14,064
24,796
36,324
48,575
61,475
74,958
88,931
103,255
117,821
132,543
147,34
162,151
176,919
191,585
206,108
220,45
234,551
248,335
261,729
274,655
287,053
298,873
310,062
320,575
330,372
339,416
347,675
355,116
361,701
367,39
372,146
375,935
378,735
380,531
381,314
381,081
379,836
377,589
374,359
370,167
365,039
359,003
352,092
344,345
335,806
326,525
316,553
305,947
294,77
283,084
270,956
258,452
245,641
232,589
219,365
206,037
192,674
179,34
166,101
153,019
140,155
127,568
115,312
103,435
91,975
80,968
70,443
60,427
50,941
41,997
33,607
25,781
18,527
11,853
5,758
0,233
-4,736
-9,168
-13,084
-16,509
-19,474
-22,014
-24,163
-25,951
-27,408
-28,557
-29,439
-30,097
-30,586
-30,977
-31,331
-31,696
-32,125
-32,662
-33,334
-34,164
-35,142
-36,23
-37,406
-38,637
-39,892
-41,158
-42,39
-43,559
-44,636
-45,55
-46,253
-46,74
-46,998
-47,05
-46,961
-46,731
-46,435
-46,256
-46,349
-46,955
-48,316
-50,546
-53,824
-58,394
-64,358
-71,737
-80,333
-89,517
-98,601
-107,089
-114,432
-120,058
-123,581
-124,892
-124,619
-124,218
-125,484
-129,707
-137,495
-149,901
-167,894
-190,918
-217,117
-241,625
-256,478
-257,463
-243,252
-213,97
-173,921
-121,168
-49,835
44,646
169,295
321,746
493,925
675,503
845,248
983,411
1069,767
1082,729
1017,97
879,305
676,303
433,293
173,638
-76,961
-285,822
-432,694
-509,876
-520,607
-481,826
-410,718
-320,372
-225,392
-141,484
-81,974
-54,422
-54,613
-67,204
-78,617
-81,717
-77,342
-73,514
-74,492
-79,837
-86,968
-90,681
-88,122
-79,784
-66,832
-51,488
-36,269
-22,156
-9,492
1,356
10,403
17,719
23,408
28,066
32,637
37,751
43,711
50,685
58,655
67,65
77,771
88,999
101,212
114,296
128,169
142,783
158,114
174,108
190,641
207,57
224,742
241,997
259,212
276,286
293,127
309,651
325,788
341,468
356,633
371,245
385,257
398,616
411,275
423,181
434,295
444,592
454,055
462,669
470,418
477,28
483,233
488,258
492,342
495,472
497,637
498,826
499,035
498,271
496,547
493,885
490,305
485,835
480,505
474,352
467,417
459,742
451,376
442,366
432,766
422,631
412,02
400,995
389,613
377,937
366,027
353,946
341,756
329,519
317,296
305,146
293,125
281,291
269,697
258,391
247,416
236,81
226,605
216,83
207,51
198,666
190,312
182,463
175,133
168,332
162,069
156,347
151,157
146,49
142,333
138,664
135,459
132,689
130,323
128,33
126,682
125,353
124,314
123,532
122,965
122,559
122,248
121,969
121,669
121,299
120,817
120,193
119,408
118,464
117,387
116,212
114,967
113,676
112,356
111,014
109,652
108,296
106,996
105,773
104,621
103,52
102,422
101,304
100,165
98,935
97,45
95,512
92,88
89,346
84,788
79,053
71,921
63,281
53,16
41,864
30,057
18,404
7,377
-2,552
-10,833
-17,162
-21,56
-24,674
-28,089
-33,392
-41,587
-53,513
-69,897
-90,749
-115,193
-141,075
-164,209
-180,085
-185,155
-175,736
-148,181
-99,769
-28,549
62,905
166,263
273,671
377,536
477,366
580,679
685,191
783,895
859,032
877,764
825,716
698,67
501,538
269,229
32,31
-179,588
-329,084
-409,652
-429,585
-403,381
-362,032
-318,969
-270,532
-217,683
-159,909
-104,707
-70,72
-62,538
-71,885
-88,981
-99,025
-97,255
-90,657
-82,766
-76,949
-74,071
-70,076
-63,996
-56,917
-49,488
-43,236
-39,077
-36,725
-36,018
-36,794
-38,506
-40,642
-42,778
-44,506
-45,588
-45,969
-45,587
-44,346
-42,222
-39,202
-35,298
-30,559
-25,009
-18,667
-11,572
-3,798
4,541
13,316
22,383
31,607
40,893
50,167
59,36
68,416
77,284
85,92
94,301
102,412
110,217
117,675
124,75
131,403
137,613
143,362
148,632
153,407
157,672
161,408
164,599
167,225
169,265
170,7
171,51
171,674
171,182
170,029
168,213
165,739
162,616
158,856
154,475
149,495
143,939
137,832
131,204
124,084
116,508
108,512
100,137
91,423
82,414
73,154
63,686
54,057
44,312
34,497
24,657
14,838
5,082
-4,569
-14,072
-23,389
-32,481
-41,316
-49,861
-58,087
-65,968
-73,481
-80,604
-87,32
-93,614
-99,474
-104,892
-109,863
-114,389
-118,476
-122,133
-125,371
-128,207
-130,655
-132,732
-134,452
-135,829
-136,872
-137,594
-138,011
-138,14
-138,004
-137,631
-137,055
-136,311
-135,439
-134,474
-133,447
-132,393
-131,344
-130,334
-129,396
-128,561
-127,859
-127,316
-126,947
-126,77
-126,792
-126,992
-127,343
-127,787
-128,256
-128,703
-129,079
-129,324
-129,367
-129,116
-128,509
-127,534
-126,21
-124,603
-122,792
-120,81
-118,77
-116,864
-115,164
-113,685
-112,291
-110,558
-108,153
-104,915
-100,601
-95,14
-88,849
-82,236
-76,415
-73,071
-73,544
-78,944
-90,185
-107,197
-129,066
-154,224
-179,603
-201,234
-215,456
-218,456
-206,935
-179,543
-136,231
-78,162
-9,004
65,953
140,891
208,74
262,374
296,744
308,01
293,4
253,149
189,924
107,888
13,613
-84,968
-181,056
-268,092
-339,52
-391,507
-422,625
-432,93
-425,008
-403,169
-371,455
-334,702
-298,579
-266,795
-241,494
-223,948
-213,686
-209,437
-210,081
-213,614
-217,397
-219,912
-220,35
-218,417
-214,732
-209,926
-204,422
-198,96
-194,332
-190,905
-188,814
-187,912
-187,716
-187,819
-187,885
-187,627
-186,888
-185,579
-183,654
-181,105
-177,931
-174,149
-169,789
-164,856
-159,35
-153,284
-146,671
-139,585
-132,142
-124,465
-116,686
-108,898
-101,143
-93,463
-85,892
-78,457
-71,188
-64,099
-57,187
-50,475
-44,001
-37,802
-31,92
-26,378
-21,183
-16,348
-11,881
-7,793
-4,1
-0,815
2,052
4,483
6,46
7,964
8,975
9,481
9,479
8,97
7,957
6,447
4,45
1,979
-0,951
-4,322
-8,12
-12,327
-16,925
-21,891
-27,202
-32,829
-38,743
-44,912
-51,299
-57,867
-64,579
-71,397
-78,288
-85,214
-92,141
-99,033
-105,859
-112,584
-119,178
-125,609
-131,842
-137,849
-143,605
-149,089
-154,282
-159,171
-163,747
-168,007
-171,953
-175,588
-178,916
-181,941
-184,665
-187,095
-189,237
-191,099
-192,689
-194,022
-195,117
-195,998
-196,696
-197,237
-197,649
-197,958
-198,188
-198,36
-198,501
-198,629
-198,759
-198,916
-199,135
-199,463
-199,961
-200,675
-201,632
-202,863
-204,395
-206,237
-208,386
-210,799
-213,396
-216,122
-218,939
-221,836
-224,827
-227,901
-231,027
-234,176
-237,313
-240,408
-243,447
-246,361
-249,022
-251,376
-253,448
-255,374
-257,433
-259,853
-262,744
-266,252
-270,578
-275,779
-281,768
-288,231
-294,482
-299,914
-304,211
-307,013
-308,002
-307,398
-305,712
-303,926
-303,867
-307,078
-314,508
-327,281
-346,027
-369,915
-397,36
-425,53
-449,822
-466,212
-471,257
-460,983
-432,468
-384,883
-318,779
-237,086
-145,457
-49,522
44,513
129,142
197,489
243,716
263,307
254,105
216,409
152,068
65,229
-38,099
-151,171
-266,286
-376,154
-473,829
-552,913
-609,751
-643,595
-655,159
-646,69
-621,909
-584,62
-540,562
-496,922
-458,235
-426,826
-404,224
-390,523
-385,449
-389,096
-399,088
-411,124
-422,633
-432,225
-439,15
-443,81
-446,131
-445,303
-441,986
-437,986
-434,36
-431,758
-430,294
-429,309
-428,554
-428,269
-428,264
-428,025
-427,202
-425,471
-422,724
-419,152
-414,825
-409,681
-403,721
-396,98
-389,509
-381,413
-372,798
-363,745
-354,364
-344,779
-335,085
-325,355
-315,655
-306,029
-296,516
-287,151
-277,953
-268,933
-260,127
-251,59
-243,372
-235,523
-228,074
-221,043
-214,451
-208,317
-202,654
-197,474
-192,783
-188,59
-184,907
-181,755
-179,151
-177,111
-175,643
-174,747
-174,418
-174,647
-175,422
-176,724
-178,531
-180,815
-183,551
-186,712
-190,271
-194,2
-198,466
-203,033
-207,864
-212,92
-218,161
-223,542
-229,017
-234,541
-240,066
-245,553
-250,958
-256,244
-261,371
-266,304
-271,007
-275,448
-279,594
-283,412
-286,871
-289,94
-292,593
-294,811
-296,577
-297,875
-298,697
-299,039
-298,902
-298,293
-297,22
-295,685
-293,697
-291,263
-288,394
-285,106
-281,414
-277,328
-272,864
-268,047
-262,902
-257,46
-251,749
-245,79
-239,604
-233,217
-226,656
-219,949
-213,121
-206,187
-199,175
-192,125
-185,087
-178,129
-171,306
-164,653
-158,203
-151,994
-146,035
-140,323
-134,824
-129,45
-124,137
-118,857
-113,59
-108,347
-103,12
-97,881
-92,603
-87,256
-81,802
-76,199
-70,354
-64,186
-57,723
-51,063
-44,421
-38,124
-32,392
-27,441
-23,592
-20,923
-19,324
-18,547
-18,017
-17,23
-16,045
-14,122
-10,997
-6,87
-2,243
1,927
3,877
2,507
-2,542
-12,159
-27,16
-47,027
-70,439
-94,866
-116,142
-130,68
-135,485
-126,477
-99,278
-53,395
8,06
81,608
161,701
249,198
351,634
466,85
586,065
689,343
746,027
742,208
676,464
560,979
422,735
274,701
128,54
-3,528
-118,768
-202,742
-248,986
-266,86
-262,209
-246,928
-227,641
-198,227
-157,782
-109,285
-57,936
-12,105
23,895
49,699
65,428
71,389
68,733
60,308
50,035
40,862
34,231
30,346
29,255
31,672
37,839
46,776
56,694
66,177
74,712
82,453
89,768
96,674
103,061
109,155
115,545
122,727
130,94
140,22
150,394
161,378
173,215
185,882
199,296
213,368
227,966
242,964
258,282
273,8
289,41
305,044
320,621
336,072
351,35
366,403
381,197
395,722
409,936
423,774
437,172
450,056
462,374
474,095
485,179
495,588
505,286
514,24
522,429
529,832
536,425
542,177
547,056
551,032
554,088
556,214
557,406
557,665
556,996
555,408
552,919
549,552
545,331
540,283
534,436
527,82
520,474
512,44
503,763
494,491
484,675
474,37
463,633
452,523
441,099
429,42
417,542
405,525
393,426
381,302
369,207
357,194
345,315
333,619
322,155
310,966
300,092
289,565
279,411
269,656
260,32
251,42
242,966
234,966
227,427
220,357
213,763
207,647
202,001
196,813
192,069
187,753
183,848
180,331
177,175
174,355
171,849
169,638
167,706
166,027
164,564
163,271
162,088
160,965
159,866
158,752
157,584
156,342
155,009
153,595
152,139
150,668
149,199
147,754
146,34
144,993
143,763
142,701
141,874
141,334
141,102
141,194
141,61
142,321
143,301
144,475
145,674
146,736
147,47
147,674
147,206
145,843
143,277
139,321
133,928
127,294
119,958
112,549
105,61
99,808
95,863
94,184
94,79
96,915
98,911
98,912
95,207
86,305
71,03
49,036
21,153
-10,067
-40,343
-64,518
-77,147
-73,128
-48,042
1,546
77,508
179,187
303,288
442,585
586,258
723,305
844,897
948,507
1035,126
1104,041
1149,314
1153,894
1100,833
980,709
792,518
556,2
301,003
57,056
-141,558
-276,227
-342,253
-343,428
-298,027
-223,097
-134,805
-51,069
18,792
65,905
89,227
99,171
102,076
104,982
109,857
109,318
101,145
86,114
66,843
50,016
39,381
35,556
38,46
46,604
58,227
71,722
85,265
97,482
107,595
115,349
120,856
124,391
126,441
127,719
129,068
131,082
134,079
138,165
143,28
149,405
156,523
164,558
173,386
182,907
193,043
203,745
214,994
226,711
238,78
251,07
263,42
275,708
287,845
299,751
311,357
322,604
333,43
343,785
353,638
362,952
371,685
379,801
387,255
394,017
400,071
405,407
410,022
413,91
417,056
419,446
421,068
421,913
421,976
421,251
419,732
417,422
414,334
410,486
405,903
400,611
394,636
388,01
380,767
372,946
364,587
355,731
346,422
336,706
326,635
316,261
305,638
294,817
283,85
272,786
261,677
250,57
239,514
228,555
217,736
207,099
196,69
186,549
176,716
167,224
158,102
149,375
141,066
133,19
125,757
118,768
112,223
106,123
100,468
95,252
90,469
86,109
82,161
78,614
75,452
72,653
70,189
68,027
66,137
64,49
63,062
61,823
60,746
59,803
58,97
58,229
57,553
56,902
56,223
55,453
54,543
53,463
52,179
50,661
48,89
46,866
44,626
42,242
39,769
37,231
34,633
31,965
29,243
26,501
23,78
21,103
18,491
15,965
13,593
11,486
9,689
8,145
6,693
5,075
3,071
0,58
-2,531
-6,497
-11,379
-17,078
-23,289
-29,331
-34,616
-38,921
-41,939
-43,288
-43,13
-41,892
-40,458
-40,657
-43,953
-51,065
-62,922
-80,139
-102,06
-127,422
-153,687
-176,424
-191,719
-196,455
-187,267
-161,304
-116,969
-53,692
26,894
118,583
213,161
303,194
382,705
451,744
513,475
567,869
609,377
621,362
585,814
490,668
332,909
133,876
-76,402
-266,031
-400,097
-470,867
-486,274
-460,044
-420,706
-379,435
-335,435
-294,175
-251,177
-210,946
-185,63
-171,427
-166,834
-168,431
-166,578
-163,801
-162,094
-159,895
-159,265
-158,036
-154,1
-148,71
-142,344
-135,809
-130,331
-126,311
-123,799
-122,854
-123,225
-124,36
-125,803
-127,219
-128,287
-128,82
-128,747
-127,954
-126,363
-123,986
-120,831
-116,903
-112,241
-106,853
-100,756
-94,013
-86,714
-78,973
-70,915
-62,66
-54,316
-45,967
-37,677
-29,501
-21,488
-13,674
-6,088
1,247
8,312
15,076
21,506
27,573
33,256
38,541
43,416
47,874
51,908
55,511
58,674
61,387
63,636
65,408
66,69
67,472
67,744
67,503
66,752
65,499
63,76
61,55
58,889
55,796
52,297
48,417
44,183
39,624
34,772
29,661
24,326
18,807
13,144
7,378
1,549
-4,306
-10,149
-15,943
-21,652
-27,241
-32,68
-37,935
-42,978
-47,777
-52,304
-56,533
-60,444
-64,019
-67,242
-70,104
-72,601
-74,733
-76,507
-77,929
-79,006
-79,748
-80,168
-80,277
-80,089
-79,617
-78,877
-77,891
-76,688
-75,301
-73,766
-72,118
-70,388
-68,607
-66,804
-65,004
-63,232
-61,503
-59,826
-58,227
-56,745
-55,429
-54,343
-53,527
-53
-52,782
-52,883
-53,29
-53,977
-54,877
-55,911
-57,031
-58,211
-59,46
-60,808
-62,257
-63,785
-65,365
-66,929
-68,445
-69,912
-71,283
-72,543
-73,712
-74,836
-76,096
-77,727
-79,91
-82,787
-86,436
-90,826
-95,977
-101,965
-108,703
-116,012
-123,519
-130,602
-136,769
-141,73
-145,267
-147,118
-147,215
-145,87
-143,919
-142,896
-144,417
-149,513
-158,438
-170,971
-186,12
-201,795
-215,256
-222,672
-219,457
-202,037
-168,496
-118,253
-52,854
24,035
107,966
192,626
269,377
329,94
367,333
377,594
361,6
321,816
259,611
172,909
59,589
-75,546
-218,705
-345,409
-431,808
-467,655
-457,534
-420,421
-377,498
-340,72
-312,807
-289,326
-266,133
-243,222
-223,328
-210,34
-205,143
-205,987
-210,273
-214,546
-216,927
-216,991
-214,403
-209,529
-203,1
-195,678
-188,131
-181,459
-176,059
-172,033
-169,354
-167,643
-166,531
-165,699
-164,717
-163,293
-161,327
-158,761
-155,612
-151,919
-147,645
-142,788
-137,38
-131,417
-124,92
-117,906
-110,384
-102,428
-94,155
-85,69
-77,176
-68,706
-60,331
-52,103
-44,064
-36,249
-28,696
-21,422
-14,43
-7,748
-1,41
4,549
10,089
15,189
19,842
24,038
27,774
31,044
33,841
36,159
37,994
39,337
40,178
40,504
40,3
39,559
38,282
36,472
34,137
31,287
27,936
24,103
19,808
15,074
9,923
4,376
-1,542
-7,808
-14,394
-21,271
-28,408
-35,773
-43,331
-51,046
-58,881
-66,8
-74,766
-82,748
-90,713
-98,632
-106,479
-114,225
-121,845
-129,316
-136,612
-143,709
-150,585
-157,219
-163,594
-169,695
-175,515
-181,045
-186,285
-191,236
-195,905
-200,301
-204,434
-208,311
-211,94
-215,33
-218,491
-221,435
-224,173
-226,718
-229,085
-231,294
-233,369
-235,333
-237,208
-239,014
-240,764
-242,473
-244,154
-245,822
-247,487
-249,156
-250,846
-252,584
-254,406
-256,362
-258,488
-260,805
-263,332
-266,079
-269,031
-272,16
-275,405
-278,685
-281,943
-285,145
-288,271
-291,329
-294,302
-297,166
-299,9
-302,441
-304,737
-306,729
-308,306
-309,398
-310,028
-310,284
-310,379
-310,598
-311,109
-312,092
-313,793
-316,241
-319,354
-322,883
-326,237
-328,918
-330,672
-331,137
-329,997
-327,463
-323,99
-320,473
-318,576
-319,629
-324,511
-334,339
-349,769
-370,126
-393,972
-418,763
-440,291
-454,602
-458,212
-447,076
-418,122
-370,64
-305,397
-225,073
-135,075
-41,393
49,579
129,999
192,636
232,51
246,074
231,544
189,991
124,246
38,874
-59,21
-162,488
-264,295
-358,34
-438,623
-500,724
-542,398
-563,528
-566,204
-553,777
-529,684
-497,773
-462,927
-429,866
-401,683
-379,996
-365,02
-355,974
-352,103
-352,408
-354,891
-357,305
-358,229
-356,968
-353,608
-348,814
-343,058
-336,721
-330,453
-324,914
-320,48
-317,261
-315,018
-313,263
-311,562
-309,562
-307,007
-303,748
-299,689
-294,79
-289,033
-282,413
-274,952
-266,683
-257,613
-247,748
-237,093
-225,667
-213,553
-200,884
-187,803
-174,461
-160,957
-147,35
-133,696
-120,048
-106,448
-92,943
-79,557
-66,302
-53,217
-40,354
-27,768
-15,515
-3,63
7,866
18,952
29,606
39,807
49,53
58,754
67,462
75,627
83,224
90,225
96,605
102,346
107,44
111,882
115,672
118,814
121,317
123,192
124,458
125,131
125,229
124,774
123,788
122,299
120,337
117,936
115,129
111,957
108,462
104,686
100,675
96,472
92,119
87,659
83,135
78,587
74,054
69,576
65,187
60,925
56,827
52,924
49,246
45,821
42,668
39,804
37,241
34,985
33,037
31,398
30,062
29,026
28,285
27,835
27,669
27,781
28,158
28,784
29,639
30,696
31,923
33,289
34,762
36,307
37,898
39,503
41,094
42,652
44,153
45,563
46,841
47,924
48,753
49,296
49,526
49,421
48,978
48,196
47,091
45,732
44,181
42,493
40,721
38,866
36,912
34,88
32,803
30,74
28,736
26,761
24,766
22,741
20,676
18,573
16,366
13,828
10,708
6,795
1,885
-4,077
-11,151
-19,548
-29,32
-40,343
-52,339
-64,637
-76,561
-87,796
-97,87
-106,156
-112,563
-117,111
-120,216
-123,379
-127,826
-134,25
-143,883
-157,64
-175,018
-194,999
-215,485
-232,428
-242,266
-242,03
-227,566
-195,098
-143,349
-72,657
15,012
112,623
212,734
310,862
398,228
469,992
525,797
557,318
559,945
527,388
446,628
319,08
153,998
-29,795
-198,342
-327,585
-405,583
-433,949
-433,53
-422,294
-409,745
-398,363
-380,339
-351,639
-315,423
-277,197
-244,298
-220,419
-204,943
-196,306
-192,565
-191,938
-192,696
-192,81
-190,888
-186,569
-180,21
-172,537
-164,146
-155,497
-147,165
-139,79
-133,743
-129,013
-125,272
-122,004
-118,729
-115,094
-110,868
-105,878
-100,023
-93,253
-85,526
-76,861
-67,318
-56,946
-45,782
-33,854
-21,18
-7,819
6,105
20,449
35,058
49,778
64,511
79,185
93,726
108,074
122,177
135,986
149,479
162,639
175,424
187,783
199,666
211,026
221,836
232,079
241,735
250,787
259,219
267,012
274,153
280,624
286,405
291,476
295,818
299,412
302,25
304,329
305,652
306,228
306,069
305,193
303,621
301,378
298,491
294,988
290,902
286,268
281,123
275,508
269,467
263,046
256,298
249,272
242,024
234,606
227,073
219,479
211,881
204,33
196,876
189,569
182,456
175,584
169
162,747
156,865
151,392
146,363
141,81
137,76
134,233
131,241
128,792
126,891
125,541
124,736
124,471
124,734
125,518
126,815
128,614
130,896
133,635
136,799
140,358
144,28
148,533
153,077
157,871
162,874
168,058
173,399
178,866
184,415
189,985
195,502
200,905
206,145
211,177
215,96
220,455
224,637
228,513
232,122
235,502
238,681
241,665
244,459
247,095
249,63
252,138
254,699
257,364
260,154
263,086
266,166
269,35
272,58
275,756
278,698
281,225
283,151
284,257
284,336
283,217
280,629
276,204
269,745
261,254
251,042
239,851
228,447
217,448
207,63
199,883
194,725
192,223
191,506
190,462
186,963
179,365
166,205
146,546
120,354
88,481
53,836
21,888
-1,442
-10,602
-0,04
34,894
97,672
191,102
312,834
453,9
604,954
755,809
901,057
1045,193
1187,462
1320,145
1428,398
1480,968
1452,196
1332,258
1120,939
844,587
543,72
255,872
23,739
-126,978
-197,298
-199,378
-161,972
-115,455
-71,592
-34,493
-1,064
36,387
76,328
113,292
142,624
159,185
162,139
155,265
143,325
130,751
120,896
115,204
113,884
117,054
124,815
136,115
148,97
161,658
172,697
181,392
187,929
192,42
194,805
195,456
195,119
194,486
194,252
194,848
196,307
198,721
202,247
206,934
212,787
219,765
227,758
236,686
246,519
257,183
268,584
280,62
293,137
305,992
319,041
332,122
345,112
357,906
370,413
382,559
394,281
405,518
416,228
426,386
435,96
444,921
453,24
460,881
467,828
474,069
479,595
484,403
488,482
491,818
494,399
496,217
497,262
497,531
497,018
495,716
493,629
490,769
487,153
482,806
477,754
472,022
465,642
458,651
451,087
442,989
434,4
425,363
415,923
406,129
396,032
385,685
375,14
364,444
353,648
342,797
331,939
321,119
310,38
299,761
289,302
279,042
269,02
259,272
249,83
240,723
231,974
223,606
215,634
208,07
200,919
194,18
187,85
181,929
176,411
171,291
166,56
162,205
158,212
154,571
151,266
148,274
145,569
143,122
140,905
138,896
137,075
135,418
133,903
132,504
131,199
129,975
128,804
127,645
126,45
125,154
123,704
122,064
120,201
118,075
115,675
113
110,081
106,993
103,788
100,49
97,114
93,66
90,148
86,619
83,118
79,687
76,373
73,234
70,374
67,903
65,839
64,117
62,552
60,865
58,853
56,334
53,042
48,826
43,709
37,893
31,922
26,428
21,818
18,496
16,91
17,062
18,508
20,266
20,465
17,183
8,98
-5,569
-27,618
-57,157
-92,979
-132,409
-170,668
-202,399
-222,679
-226,416
-209,111
-168,085
-102,756
-15,17
89,183
202,992
318,017
424,592
512,901
574,091
603,152
599,561
564,485
499,527
401,893
266,917
99,137
-85,295
-258,093
-388,116
-459,342
-476,236
-459,605
-431,923
-405,007
-378,892
-346,025
-303,782
-256,755
-211,187
-174,019
-148,493
-134,326
-131,157
-137,366
-149,401
-163,277
-176,217
-186,698
-194,386
-199,247
-200,583
-198,15
-193,059
-187,229
-182,087
-178,253
-175,631
-173,856
-172,974
-173,034
-173,708
-174,342
-174,365
-173,501
-171,706
-169,117
-165,776
-161,635
-156,711
-151,081
-144,844
-138,086
-130,901
-123,341
-115,485
-107,459
-99,345
-91,214
-83,13
-75,131
-67,249
-59,515
-51,936
-44,52
-37,298
-30,313
-23,607
-17,221
-11,179
-5,496
-0,196
4,707
9,201
13,279
16,937
20,165
22,943
25,253
27,073
28,385
29,178
29,447
29,189
28,407
27,109
25,304
23,009
20,242
17,018
13,355
9,271
4,786
-0,076
-5,287
-10,819
-16,639
-22,713
-29,005
-35,475
-42,085
-48,8
-55,584
-62,404
-69,226
-76,018
-82,748
-89,389
-95,909
-102,281
-108,474
-114,46
-120,215
-125,718
-130,952
-135,902
-140,559
-144,917
-148,974
-152,735
-156,204
-159,385
-162,282
-164,901
-167,247
-169,33
-171,158
-172,744
-174,105
-175,261
-176,237
-177,061
-177,759
-178,356
-178,873
-179,326
-179,73
-180,104
-180,456
-180,796
-181,145
-181,53
-181,992
-182,583
-183,336
-184,272
-185,414
-186,767
-188,326
-190,066
-191,928
-193,843
-195,768
-197,671
-199,553
-201,427
-203,28
-205,088
-206,816
-208,411
-209,831
-211,04
-211,953
-212,484
-212,613
-212,403
-212,036
-211,742
-211,693
-211,981
-212,701
-214
-215,916
-218,334
-220,962
-223,25
-224,69
-225,028
-223,979
-221,204
-216,821
-211,187
-205,007
-199,871
-197,237
-198,062
-203,534
-214,4
-230,021
-249,13
-269,458
-286,945
-297,736
-298,403
-284,886
-254,194
-205,679
-140,022
-59,774
29,882
123,204
213,896
294,188
356,864
396,805
410,226
394,951
351,638
282,987
193,52
90,092
-19,678
-128,943
-230,881
-318,374
-386,101
-431,512
-454,202
-456,045
-440,035
-409,098
-367,487
-321,591
-277,67
-239,777
-210,221
-189,728
-178,458
-176,955
-184,419
-197,736
-212,957
-227,318
-239,376
-248,718
-255,205
-258,094
-257,123
-253,312
-248,435
-243,837
-240,062
-237,047
-234,465
-232,342
-230,796
-229,586
-228,164
-226,069
-223,082
-219,2
-214,574
-209,264
-203,227
-196,483
-189,103
-181,179
-172,819
-164,121
-155,167
-146,073
-136,939
-127,839
-118,837
-109,987
-101,326
-92,891
-84,706
-76,775
-69,127
-61,807
-54,87
-48,37
-42,348
-36,825
-31,82
-27,349
-23,43
-20,073
-17,283
-15,061
-13,417
-12,36
-11,908
-12,076
-12,87
-14,29
-16,328
-18,972
-22,21
-26,021
-30,385
-35,271
-40,652
-46,502
-52,793
-59,497
-66,585
-74,023
-81,778
-89,813
-98,091
-106,572
-115,213
-123,974
-132,81
-141,68
-150,544
-159,364
-168,105
-176,732
-185,214
-193,517
-201,613
-209,473
-217,068
-224,371
-231,356
-238,001
-244,287
-250,202
-255,734
-260,878
-265,633
-270,002
-273,994
-277,616
-280,876
-283,783
-286,344
-288,568
-290,468
-292,051
-293,33
-294,322
-295,048
-295,534
-295,809
-295,902
-295,835
-295,632
-295,314
-294,9
-294,409
-293,854
-293,243
-292,596
-291,945
-291,331
-290,815
-290,433
-290,202
-290,146
-290,281
-290,611
-291,128
-291,786
-292,502
-293,224
-293,917
-294,578
-295,23
-295,866
-296,458
-296,974
-297,366
-297,627
-297,76
-297,728
-297,453
-296,879
-296,018
-295,016
-294,136
-293,606
-293,59
-294,163
-295,426
-297,575
-300,63
-304,44
-308,615
-312,457
-315,424
-317,246
-317,621
-316,351
-313,657
-309,946
-306,226
-304,23
-305,299
-310,484
-320,716
-335,93
-355,15
-376,693
-397,379
-413,161
-420,313
-415,008
-393,765
-354,783
-297,743
-224,018
-137,49
-43,426
51,957
141,497
218,041
274,769
305,953
307,914
279,044
221,785
143,089
48,069
-58,811
-174,097
-298,995
-424,587
-534,255
-614,286
-649,186
-638,399
-597,264
-539,355
-480,104
-428,218
-381,129
-338,157
-299,503
-266,261
-243,129
-232,725
-234,425
-245,597
-262,226
-280,94
-299,116
-315,3
-328,635
-337,781
-342,211
-342,439
-339,292
-334,158
-328,579
-323,159
-318,113
-313,846
-310,416
-307,79
-305,947
-304,421
-302,591
-300,182
-297,058
-293,178
-288,657
-283,513
-277,709
-271,325
-264,498
-257,359
-250,054
-242,684
-235,266
-227,82
-220,373
-212,952
-205,6
-198,346
-191,195
-184,138
-177,187
-170,379
-163,765
-157,394
-151,302
-145,509
-140,027
-134,876
-130,079
-125,649
-121,6
-117,932
-114,65
-111,763
-109,29
-107,249
-105,65
-104,498
-103,792
-103,531
-103,708
-104,317
-105,344
-106,773
-108,584
-110,761
-113,285
-116,137
-119,296
-122,736
-126,433
-130,36
-134,488
-138,784
-143,215
-147,746
-152,341
-156,966
-161,585
-166,161
-170,661
-175,054
-179,312
-183,409
-187,319
-191,018
-194,482
-197,69
-200,623
-203,262
-205,589
-207,586
-209,241
-210,545
-211,494
-212,086
-212,322
-212,209
-211,755
-210,974
-209,882
-208,491
-206,816
-204,871
-202,673
-200,241
-197,592
-194,745
-191,721
-188,544
-185,245
-181,85
-178,39
-174,884
-171,353
-167,817
-164,298
-160,816
-157,384
-154,013
-150,72
-147,537
-144,507
-141,677
-139,083
-136,742
-134,671
-132,893
-131,406
-130,193
-129,204
-128,35
-127,557
-126,789
-126,033
-125,286
-124,535
-123,737
-122,844
-121,842
-120,712
-119,438
-117,966
-116,186
-114,077
-111,718
-109,294
-107,109
-105,424
-104,367
-104,098
-104,828
-106,561
-109,187
-112,398
-115,52
-118,041
-119,688
-120,101
-119,109
-117,017
-114,324
-111,962
-111,375
-113,536
-119,175
-129,226
-143,789
-161,882
-181,789
-200,663
-214,982
-221,776
-217,977
-200,044
-165,701
-114,515
-47,658
31,728
119,139
209,783
297,783
375,391
435,427
472,687
482,956
465,889
423,121
354,39
263,405
152,746
25,328
-105,451
-228,253
-329,669
-395,782
-430,107
-437,588
-423,976
-399,147
-361,933
-312,747
-257,34
-199,276
-145,691
-102,132
-69,626
-49,504
-41,762
-44,272
-54,279
-68,12
-81,896
-93,445
-101,718
-105,479
-104,15
-97,945
-87,526
-74,533
-60,923
-47,583
-34,857
-23,061
-12,092
-1,875
7,608
16,88
26,596
37,067
48,479
60,85
74,008
87,904
102,54
117,815
133,617
149,816
166,256
182,828
199,448
216,034
232,531
248,874
264,992
280,833
296,352
311,525
326,339
340,752
354,703
368,13
380,967
393,168
404,704
415,541
425,65
435,007
443,591
451,39
458,4
464,606
469,991
474,538
478,23
481,06
483,03
484,146
484,422
483,874
482,525
480,402
477,539
473,97
469,728
464,849
459,373
453,339
446,795
439,788
432,369
424,593
416,518
408,202
399,706
391,089
382,411
373,731
365,105
356,588
348,231
340,083
332,192
324,606
317,367
310,516
304,092
298,127
292,652
287,694
283,271
279,396
276,078
273,316
271,113
269,463
268,357
267,778
267,707
268,125
269,015
270,358
272,129
274,294
276,82
279,672
282,822
286,235
289,871
293,682
297,62
301,647
305,739
309,881
314,052
318,22
322,343
326,363
330,242
333,945
337,434
340,666
343,597
346,204
348,491
350,516
352,337
353,993
355,499
356,824
357,921
358,782
359,442
359,982
360,492
360,992
361,446
361,888
362,421
363,066
363,7
363,873
362,876
360,287
356,094
350,447
343,508
335,431
326,437
317,4
310,028
305,647
304,745
307,114
312,061
319,104
327,891
337,132
344,036
345,771
340,371
327,043
306,236
278,245
243,366
203,41
162,496
125,96
99,115
86,889
93,065
121,37
175,976
257,165
359,635
476,932
601,341
728,363
862,198
1002,704
1140,568
1260,602
1335,358
1338,459
1262,188
1108,249
890,941
642,649
390,924
165,791
1,09
-94,629
-124,754
-105,568
-70,238
-35,963
-7,819
15,178
43,549
78,712
114,502
145,857
167,213
177,622
180,274
177,874
173,157
168,624
166,015
166,368
169,809
175,755
183,21
191,253
199,184
206,282
211,914
215,86
218,224
219,333
219,727
219,89
220,215
221,124
222,903
225,703
229,641
234,746
240,998
248,401
256,912
266,454
276,982
288,426
300,693
313,698
327,311
341,379
355,753
370,272
384,809
399,268
413,556
427,594
441,319
454,669
467,602
480,088
492,078
503,523
514,379
524,594
534,132
542,964
551,06
558,396
564,948
570,689
575,592
579,632
582,784
585,021
586,322
586,663
586,029
584,415
581,818
578,247
573,713
568,231
561,822
554,513
546,332
537,31
527,483
516,888
505,567
493,566
480,936
467,728
453,999
439,809
425,217
410,286
395,08
379,662
364,092
348,433
332,742
317,079
301,501
286,066
270,826
255,835
241,145
226,804
212,857
199,348
186,31
173,773
161,762
150,294
139,381
129,032
119,251
110,039
101,396
93,321
85,812
78,865
72,47
66,609
61,262
56,404
52,005
48,033
44,453
41,233
38,341
35,747
33,423
31,343
29,477
27,783
26,21
24,689
23,152
21,551
19,842
17,987
15,959
13,74
11,328
8,748
6,038
3,225
0,337
-2,62
-5,646
-8,729
-11,825
-14,861
-17,783
-20,595
-23,323
-26,001
-28,634
-31,201
-33,738
-36,395
-39,382
-42,911
-47,177
-52,286
-58,359
-65,663
-74,382
-84,531
-95,823
-107,524
-118,791
-129,021
-137,674
-144,087
-147,968
-149,496
-149,528
-150,17
-153,756
-162,001
-176,466
-198,402
-227,802
-263,272
-301,745
-337,858
-365,824
-380,299
-375,642
-346,863
-290,293
-206,674
-102,059
15,998
138,897
263,824
393,656
522,665
639,022
722,883
746,99
700,443
587,661
420,849
221,966
9,955
-201,706
-393,058
-542,349
-639,353
-678,57
-667,43
-626,846
-564,215
-489,313
-415,32
-345,441
-293,882
-266,806
-254,021
-250,771
-248,335
-242,008
-239,139
-242,017
-249,9
-261,607
-271,918
-277,772
-278,676
-274,603
-266,658
-256,482
-245,933
-236,199
-227,79
-221,006
-215,802
-212,059
-209,661
-208,038
-206,301
-203,933
-200,672
-196,383
-191,156
-184,994
-177,845
-169,792
-160,967
-151,464
-141,364
-130,722
-119,566
-107,985
-96,112
-84,086
-72,028
-60,025
-48,144
-36,445
-24,979
-13,793
-2,92
7,612
17,759
27,472
36,706
45,413
53,553
61,098
68,024
74,318
79,97
84,967
89,294
92,929
95,852
98,043
99,487
100,165
100,069
99,197
97,553
95,15
92,006
88,14
83,575
78,341
72,464
65,979
58,919
51,32
43,222
34,67
25,71
16,394
6,777
-3,087
-13,143
-23,333
-33,603
-43,895
-54,158
-64,34
-74,395
-84,274
-93,933
-103,325
-112,409
-121,144
-129,495
-137,428
-144,911
-151,917
-158,427
-164,425
-169,902
-174,851
-179,269
-183,158
-186,522
-189,374
-191,722
-193,575
-194,946
-195,857
-196,33
-196,395
-196,083
-195,424
-194,455
-193,218
-191,752
-190,091
-188,267
-186,3
-184,215
-182,043
-179,809
-177,545
-175,282
-173,046
-170,878
-168,832
-166,951
-165,284
-163,855
-162,658
-161,698
-160,995
-160,553
-160,37
-160,429
-160,685
-161,133
-161,802
-162,693
-163,803
-165,069
-166,379
-167,656
-168,824
-169,832
-170,654
-171,219
-171,448
-171,35
-171,015
-170,588
-170,268
-170,108
-170,077
-170,246
-170,594
-171,086
-171,61
-171,77
-171,139
-169,452
-166,581
-162,543
-157,783
-152,889
-148,617
-146,203
-146,86
-151,645
-161,152
-175,163
-192,417
-210,956
-228,393
-241,552
-247,042
-241,505
-222,298
-188,422
-140,612
-80,791
-11,889
61,56
134,024
199,122
250,337
283,037
294,292
282,025
245,961
188,253
112,736
25,414
-66,106
-155,345
-236,308
-302,809
-350,858
-378,754
-386,301
-375,804
-351,429
-317,167
-277,794
-238,946
-204,429
-176,565
-156,786
-144,814
-139,478
-139,538
-142,848
-146,631
-149,191
-149,642
-147,585
-143,471
-137,893
-131,282
-124,382
-118,066
-112,733
-108,463
-105,102
-102,156
-99,169
-95,892
-92,102
-87,649
-82,514
-76,688
-70,195
-63,115
-55,488
-47,314
-38,598
-29,325
-19,492
-9,155
1,605
12,67
23,877
35,109
46,292
57,37
68,316
79,106
89,707
100,104
110,294
120,253
129,945
139,322
148,326
156,917
165,071
172,767
179,998
186,748
193,002
198,744
203,961
208,637
212,757
216,302
219,247
221,578
223,287
224,374
224,842
224,697
223,945
222,599
220,676
218,195
215,174
211,635
207,597
203,086
198,13
192,757
187
180,892
174,468
167,768
160,831
153,701
146,421
139,034
131,583
124,111
116,66
109,268
101,971
94,804
87,8
80,99
74,404
68,072
62,018
56,267
50,841
45,758
41,036
36,685
32,712
29,12
25,911
23,083
20,63
18,545
16,815
15,427
14,37
13,632
13,195
13,044
13,153
13,499
14,063
14,821
15,745
16,808
17,977
19,228
20,544
21,907
23,3
24,707
26,102
27,468
28,793
30,053
31,223
32,268
33,131
33,767
34,161
34,299
34,189
33,865
33,341
32,652
31,864
31,021
30,157
29,297
28,428
27,544
26,678
25,895
25,3
25,025
25,168
25,783
26,868
28,336
30,063
31,886
33,598
34,972
35,744
35,84
35,424
34,832
34,584
35,061
36,33
38,557
42,041
46,554
51,551
56,094
58,436
57,288
52,148
42,26
27,143
7,574
-15,171
-38,829
-59,35
-73,116
-77,128
-67,76
-42,302
-0,152
58,241
130,732
212,572
298,485
382,656
457,693
516,484
553,895
566,017
550,411
507,535
439,799
351,241
248,536
139,87
32,623
-66,044
-149,001
-211,784
-252,375
-270,27
-267,7
-249,009
-218,466
-181,351
-144,043
-110,836
-84,294
-66,133
-56,117
-52,992
-55,691
-62,012
-68,89
-74,549
-77,977
-78,703
-77,335
-74,519
-70,661
-66,611
-63,319
-61,232
-60,569
-61,21
-62,641
-64,442
-66,23
-67,657
-68,536
-68,756
-68,266
-67,076
-65,196
-62,645
-59,478
-55,711
-51,346
-46,402
-40,89
-34,877
-28,492
-21,87
-15,161
-8,479
-1,88
4,585
10,871
16,945
22,77
28,328
33,626
38,643
43,34
47,678
51,612
55,117
58,184
60,805
62,97
64,669
65,89
66,622
66,858
66,587
65,792
64,457
62,562
60,096
57,054
53,434
49,239
44,474
39,144
33,263
26,847
19,911
12,475
4,556
-3,826
-12,649
-21,887
-31,517
-41,509
-51,833
-62,456
-73,343
-84,456
-95,757
-107,208
-118,767
-130,394
-142,05
-153,696
-165,298
-176,82
-188,227
-199,483
-210,553
-221,406
-232,007
-242,326
-252,331
-261,994
-271,289
-280,196
-288,698
-296,783
-304,442
-311,67
-318,466
-324,829
-330,76
-336,263
-341,339
-345,991
-350,225
-354,044
-357,46
-360,488
-363,147
-365,463
-367,463
-369,174
-370,624
-371,839
-372,842
-373,66
-374,313
-374,815
-375,187
-375,459
-375,671
-375,886
-376,155
-376,51
-376,977
-377,577
-378,32
-379,22
-380,264
-381,394
-382,557
-383,707
-384,818
-385,917
-387,024
-388,126
-389,202
-390,201
-391,098
-391,946
-392,776
-393,582
-394,348
-395,038
-395,711
-396,58
-397,874
-399,792
-402,49
-405,979
-410,329
-415,76
-422,305
-429,824
-437,974
-446,014
-453,333
-459,702
-464,765
-468,068
-469,614
-469,545
-468,493
-468,079
-469,596
-473,757
-481,502
-493,366
-508,716
-526,448
-544,422
-558,871
-566,484
-564,345
-548,977
-517,709
-469,549
-404,643
-324,998
-235,021
-139,628
-44,352
44,09
118,441
171,754
198,593
194,857
160,682
100,656
17,377
-86,614
-208,897
-350,3
-500,61
-640,211
-750,755
-812,377
-821,621
-792,03
-736,989
-673,357
-609,897
-544,715
-480,282
-419,068
-364,683
-324,789
-302,474
-296,869
-305,784
-324,312
-346,993
-369,806
-389,641
-404,06
-411,921
-413,045
-407,894
-397,855
-385,07
-371,607
-358,805
-347,525
-338,024
-330,079
-323,502
-317,977
-312,897
-307,611
-301,71
-294,947
-287,319
-279,017
-270,124
-260,693
-250,815
-240,575
-230,084
-219,467
-208,809
-198,179
-187,635
-177,213
-166,959
-156,928
-147,152
-137,66
-128,467
-119,568
-110,99
-102,782
-94,996
-87,686
-80,891
-74,633
-68,932
-63,807
-59,272
-55,339
-52,011
-49,286
-47,168
-45,669
-44,798
-44,568
-44,981
-46,029
-47,702
-49,983
-52,855
-56,294
-60,273
-64,757
-69,716
-75,116
-80,923
-87,102
-93,614
-100,416
-107,465
-114,716
-122,12
-129,628
-137,188
-144,747
-152,254
-159,657
-166,908
-173,955
-180,753
-187,256
-193,426
-199,224
-204,616
-209,568
-214,048
-218,031
-221,492
-224,412
-226,774
-228,567
-229,78
-230,411
-230,465
-229,955
-228,896
-227,305
-225,204
-222,618
-219,579
-216,122
-212,282
-208,091
-203,581
-198,79
-193,763
-188,549
-183,192
-177,738
-172,228
-166,705
-161,218
-155,809
-150,521
-145,387
-140,428
-135,669
-131,137
-126,872
-122,926
-119,342
-116,145
-113,359
-111,006
-109,101
-107,653
-106,652
-106,048
-105,797
-105,842
-106,118
-106,602
-107,268
-108,098
-109,085
-110,139
-111,138
-112,031
-112,783
-113,381
-113,892
-114,237
-114,264
-114,14
-114,208
-114,86
-116,574
-119,419
-123,084
-127,621
-133,327
-139,999
-146,951
-153,008
-156,564
-157,005
-154,753
-149,788
-141,823
-131,289
-119,502
-108,931
-103,016
-103,807
-111,567
-126,869
-150,082
-180,214
-214,695
-248,697
-275,558
-289,681
-286,828
-262,192
-211,516
-131,756
-24,451
103,11
242,482
384,149
525,242
669,345
810,545
939,24
1037,186
1073,532
1034,856
918,896
730,538
497,112
244,011
-4,09
-212,826
-362,221
-446,527
-468,507
-448,059
-403,127
-336,804
-253,658
-159,227
-64,845
6,458
41,715
43,706
25,569
5,885
-4,526
-6,912
-8,791
-15,07
-26,042
-38,155
-45,313
-45,04
-38,272
-26,427
-12,066
2,412
16,235
28,799
39,361
47,998
54,972
60,533
65,491
70,77
76,797
83,852
92,145
101,59
112,165
123,902
136,664
150,304
164,748
179,914
195,751
212,247
229,316
246,826
264,649
282,624
300,626
318,566
336,353
353,913
371,179
388,081
404,562
420,574
436,061
450,966
465,23
478,796
491,617
503,661
514,902
525,325
534,913
543,641
551,484
558,418
564,422
569,479
573,572
576,685
578,81
579,948
580,107
579,303
577,556
574,886
571,322
566,893
561,636
555,588
548,789
541,282
533,112
524,329
514,985
505,137
494,842
484,16
473,151
461,877
450,402
438,788
427,093
415,374
403,685
392,081
380,614
369,335
358,292
347,529
337,091
327,021
317,356
308,131
299,372
291,103
283,343
276,104
269,392
263,209
257,551
252,41
247,783
243,66
240,029
236,878
234,191
231,951
230,137
228,725
227,683
226,976
226,567
226,42
226,501
226,777
227,22
227,802
228,492
229,268
230,108
230,977
231,831
232,613
233,258
233,718
233,955
233,93
233,617
233,01
232,122
231,002
229,709
228,277
226,727
225,053
223,235
221,283
219,213
217,051
214,848
212,643
210,48
208,457
206,664
205,127
203,772
202,403
200,778
198,701
196,063
192,749
188,562
183,476
177,653
171,444
165,469
160,263
156,024
153,036
151,74
152,002
153,378
155,002
155,004
151,904
144,925
132,838
114,706
91,033
63,055
33,491
7,114
-12,2
-21,022
-14,516
11,259
58,192
124,958
205,586
292,542
380,937
471,217
564,803
657,565
739,156
790,279
791,102
733,08
617,181
457,116
275,299
94,071
-63,268
-180,073
-249,871
-276,689
-276,176
-262,941
-245,387
-224,165
-191,996
-146,247
-90,634
-31,808
21,044
62,927
93,003
110,454
115,898
111,379
99,222
83,011
66,554
51,688
39,565
31,671
28,635
30,346
36,205
44,46
53,123
61,375
68,819
75,075
80,206
84,219
87,165
89,649
92,399
95,79
100,01
105,067
110,798
117,161
124,168
131,727
139,714
147,988
156,417
164,924
173,458
181,976
190,434
198,775
206,946
214,909
222,644
230,148
237,425
244,449
251,181
257,575
263,587
269,193
274,372
279,099
283,353
287,116
290,374
293,122
295,357
297,066
298,234
298,844
298,878
298,326
297,187
295,458
293,145
290,254
286,798
282,792
278,256
273,209
267,673
261,668
255,219
248,352
241,096
233,483
225,545
217,319
208,844
200,161
191,31
182,335
173,28
164,188
155,105
146,071
137,128
128,311
119,657
111,202
102,981
95,024
87,361
80,022
73,032
66,417
60,202
54,404
49,038
44,114
39,639
35,617
32,046
28,921
26,231
23,966
22,115
20,665
19,602
18,91
18,569
18,56
18,861
19,446
20,284
21,342
22,585
23,98
25,498
27,109
28,787
30,506
32,238
33,964
35,663
37,307
38,856
40,263
41,475
42,455
43,173
43,601
43,718
43,521
43,029
42,293
41,376
40,323
39,156
37,877
36,482
34,981
33,4
31,763
30,105
28,46
26,869
25,416
24,199
23,229
22,422
21,59
20,479
18,887
16,716
13,839
10,087
5,491
0,236
-5,31
-10,503
-14,878
-18,252
-20,371
-21,08
-20,7
-19,748
-19,123
-20,319
-24,352
-31,83
-43,526
-59,447
-78,521
-99,103
-118,555
-133,392
-140,654
-137,491
-120,735
-88,548
-40,906
20,846
93,755
173,594
255,592
334,138
402,506
454,334
485,115
491,743
472,236
426,684
357,216
267,711
164,395
54,929
-53,67
-154,158
-238,842
-302,422
-342,045
-356,669
-347,77
-318,497
-272,837
-216,837
-158,19
-103,033
-55,559
-18,427
7,119
20,256
21,369
13,022
-0,565
-15,403
-28,972
-40,101
-48,103
-52,008
-51,386
-46,784
-39,758
-32,326
-25,579
-19,702
-14,641
-10,399
-7,048
-4,606
-2,697
-0,588
2,16
5,689
9,982
14,88
20,346
26,438
33,124
40,295
47,819
55,551
63,383
71,258
79,121
86,926
94,636
102,198
109,583
116,773
123,766
130,575
137,189
143,568
149,668
155,442
160,86
165,912
170,584
174,854
178,705
182,12
185,092
187,62
189,696
191,304
192,427
193,045
193,147
192,733
191,803
190,36
188,41
185,959
183,019
179,607
175,74
171,433
166,703
161,566
156,044
150,162
143,947
137,428
130,634
123,597
116,352
108,934
101,38
93,726
86,009
78,269
70,541
62,864
55,275
47,808
40,497
33,373
26,463
19,795
13,395
7,283
1,482
-3,99
-9,116
-13,88
-18,267
-22,267
-25,874
-29,083
-31,895
-34,312
-36,34
-37,994
-39,288
-40,239
-40,863
-41,178
-41,202
-40,955
-40,455
-39,725
-38,784
-37,659
-36,378
-34,974
-33,482
-31,933
-30,355
-28,777
-27,221
-25,711
-24,268
-22,904
-21,633
-20,473
-19,455
-18,621
-18,018
-17,68
-17,627
-17,878
-18,442
-19,312
-20,461
-21,821
-23,311
-24,875
-26,474
-28,099
-29,76
-31,44
-33,114
-34,753
-36,313
-37,757
-39,058
-40,133
-40,898
-41,351
-41,569
-41,749
-42,163
-43,012
-44,414
-46,503
-49,414
-53,143
-57,564
-62,347
-66,956
-70,987
-74,195
-76,274
-77,023
-76,626
-75,485
-74,347
-74,401
-76,508
-81,341
-89,865
-102,405
-118,195
-135,771
-152,672
-165,679
-172,044
-168,906
-152,604
-120,625
-72,306
-8,486
67,849
152,312
240,235
325,792
401,322
459,463
494,399
501,864
480,197
430,057
353,827
256,157
144,532
27,875
-85,15
-186,216
-268,589
-328,22
-363,378
-374,563
-364,937
-339,541
-303,847
-264,09
-226,25
-194,184
-170,093
-154,825
-147,6
-146,779
-150,579
-156,489
-161,85
-165,192
-165,794
-163,574
-159,24
-153,541
-147,129
-140,907
-135,698
-131,852
-129,497
-128,489
-128,397
-128,867
-129,548
-130,048
-130,136
-129,694
-128,649
-126,998
-124,728
-121,81
-118,258
-114,104
-109,359
-104,056
-98,216
-91,876
-85,142
-78,129
-70,965
-63,785
-56,672
-49,685
-42,884
-36,316
-30,02
-24,036
-18,375
-13,045
-8,072
-3,486
0,685
4,41
7,679
10,49
12,836
14,715
16,125
17,06
17,52
17,501
16,995
15,993
14,487
12,467
9,933
6,887
3,336
-0,71
-5,235
-10,224
-15,657
-21,509
-27,758
-34,379
-41,347
-48,633
-56,207
-64,04
-72,098
-80,351
-88,764
-97,301
-105,926
-114,604
-123,298
-131,973
-140,592
-149,118
-157,518
-165,758
-173,808
-181,642
-189,23
-196,546
-203,564
-210,263
-216,622
-222,62
-228,241
-233,465
-238,279
-242,675
-246,648
-250,196
-253,323
-256,033
-258,336
-260,251
-261,794
-262,98
-263,825
-264,346
-264,558
-264,48
-264,129
-263,523
-262,681
-261,628
-260,392
-259,002
-257,486
-255,868
-254,17
-252,411
-250,612
-248,793
-246,969
-245,154
-243,371
-241,655
-240,052
-238,617
-237,391
-236,397
-235,66
-235,201
-235,023
-235,111
-235,417
-235,853
-236,354
-236,889
-237,442
-238,009
-238,567
-239,061
-239,443
-239,691
-239,783
-239,701
-239,381
-238,697
-237,615
-236,206
-234,656
-233,269
-232,284
-231,786
-231,927
-232,964
-234,985
-237,94
-241,479
-244,772
-247,139
-248,276
-247,868
-245,672
-241,926
-237,092
-232,348
-229,941
-231,769
-239,065
-252,843
-273,285
-299,291
-329,024
-358,961
-383,584
-397,905
-397,798
-379,241
-339,599
-278,289
-196,106
-98,499
4,446
103,811
192,605
268,962
335,434
392,011
433,08
443,762
407,095
311,192
155,572
-37,662
-234,591
-398,43
-499,935
-535,512
-520,934
-482,484
-444,506
-416,934
-397,958
-379,265
-356,453
-331,244
-307,831
-291,853
-285,147
-285,798
-291,588
-299,641
-307,066
-312,591
-315,535
-315,462
-312,91
-308,63
-303,261
-297,684
-292,807
-289,018
-286,433
-285,05
-284,494
-284,406
-284,458
-284,19
-283,29
-281,641
-279,21
-276,036
-272,183
-267,631
-262,344
-256,343
-249,638
-242,243
-234,182
-225,452
-216,103
-206,233
-195,983
-185,509
-174,922
-164,286
-153,655
-143,076
-132,596
-122,268
-112,128
-102,189
-92,486
-83,065
-73,975
-65,271
-56,992
-49,162
-41,798
-34,917
-28,537
-22,68
-17,361
-12,596
-8,401
-4,793
-1,795
0,571
2,293
3,364
3,782
3,548
2,668
1,151
-0,988
-3,728
-7,048
-10,925
-15,333
-20,241
-25,618
-31,426
-37,628
-44,186
-51,058
-58,198
-65,56
-73,094
-80,753
-88,487
-96,245
-103,978
-111,635
-119,169
-126,534
-133,69
-140,596
-147,213
-153,504
-159,431
-164,965
-170,075
-174,733
-178,912
-182,589
-185,747
-188,373
-190,459
-192,004
-193,007
-193,475
-193,421
-192,861
-191,813
-190,294
-188,324
-185,923
-183,115
-179,924
-176,374
-172,493
-168,315
-163,875
-159,218
-154,382
-149,407
-144,329
-139,181
-133,994
-128,804
-123,635
-118,505
-113,44
-108,476
-103,66
-99,061
-94,725
-90,678
-86,947
-83,551
-80,502
-77,804
-75,424
-73,288
-71,331
-69,508
-67,808
-66,26
-64,855
-63,567
-62,35
-61,143
-59,942
-58,764
-57,589
-56,353
-54,993
-53,497
-51,993
-50,733
-49,945
-49,809
-50,389
-51,741
-54,077
-57,462
-61,788
-66,771
-71,732
-76,052
-79,461
-81,623
-82,078
-80,9
-78,373
-75,147
-72,955
-73,287
-77,05
-85,535
-99,568
-118,536
-141,157
-164,931
-185,451
-198,772
-201,435
-188,998
-158,081
-107,613
-37,922
47,976
144,14
244,678
343,021
430,216
497,68
538,498
548,662
529,127
483,029
412,286
314,903
188,56
38,328
-121,505
-265,827
-368,955
-419,415
-421,919
-395,251
-360,409
-329,458
-304,254
-279,859
-253,5
-226,437
-202,121
-185,214
-176,913
-175,424
-178,765
-184,057
-188,611
-191,3
-191,46
-188,92
-184,418
-178,698
-172,313
-166,067
-160,72
-156,572
-153,747
-152,122
-151,222
-150,637
-150
-148,903
-147,104
-144,483
-140,958
-136,51
-131,128
-124,786
-117,501
-109,308
-100,223
-90,278
-79,502
-67,944
-55,722
-42,969
-29,824
-16,432
-2,887
10,743
24,383
37,976
51,467
64,804
77,958
90,903
103,593
115,98
128,014
139,646
150,85
161,605
171,885
181,673
190,949
199,693
207,888
215,516
222,556
228,989
234,795
239,959
244,47
248,328
251,534
254,096
256,028
257,346
258,069
258,224
257,837
256,936
255,554
253,724
251,481
248,865
245,916
242,678
239,195
235,514
231,682
227,75
223,764
219,774
215,826
211,967
208,241
204,691
201,356
198,274
195,48
193,005
190,88
189,131
187,783
186,856
186,367
186,332
186,76
187,657
189,025
190,86
193,151
195,883
199,038
202,598
206,538
210,832
215,453
220,376
225,574
231,025
236,699
242,56
248,573
254,698
260,9
267,141
273,38
279,579
285,704
291,729
297,631
303,393
308,987
314,38
319,531
324,381
328,886
333,012
336,727
340,008
342,848
345,249
347,238
348,872
350,193
351,244
352,061
352,67
353,112
353,432
353,68
353,94
354,278
354,722
355,302
356,014
356,834
357,772
358,768
359,668
360,315
360,503
360,03
358,77
356,531
353,026
348,095
341,73
334,153
326
317,99
310,686
304,765
300,991
299,737
300,884
303,569
305,816
305,412
300,65
289,914
271,79
246,037
213,887
178,294
144,569
118,851
106,707
113,628
144,701
203,199
289,83
402,368
534,838
678,9
825,195
963,2
1081,604
1169,296
1219,195
1228,882
1198,278
1130,963
1026,875
880,732
696,653
486,655
274,784
99,276
-15,614
-63,646
-55,769
-21,008
19,897
58,072
92,555
130,136
171,018
210,854
245,494
269,337
281,398
283,902
278,661
269,818
261,433
255,081
251,8
251,831
254,268
258,762
265,179
272,058
277,975
282,368
284,83
285,584
285,319
284,236
282,489
280,766
279,569
279,177
279,89
281,674
284,416
288,197
293,041
298,86
305,614
313,225
321,584
330,651
340,333
350,492
360,987
371,652
382,362
393,036
403,596
413,976
424,121
433,977
443,511
452,703
461,511
469,886
477,784
485,157
491,973
498,207
503,832
508,827
513,174
516,849
519,833
522,102
523,632
524,399
524,38
523,551
521,899
519,417
516,1
511,953
506,982
501,2
494,623
487,273
479,172
470,346
460,823
450,635
439,815
428,4
416,43
403,947
390,998
377,633
363,901
349,855
335,549
321,039
306,38
291,627
276,834
262,051
247,329
232,719
218,266
204,02
190,024
176,32
162,952
149,957
137,373
125,232
113,563
102,389
91,727
81,589
71,983
62,91
54,374
46,37
38,893
31,94
25,502
19,573
14,146
9,206
4,734
0,707
-2,906
-6,139
-9,025
-11,6
-13,899
-15,951
-17,79
-19,446
-20,936
-22,287
-23,53
-24,712
-25,899
-27,151
-28,509
-30,001
-31,651
-33,468
-35,46
-37,619
-39,893
-42,23
-44,586
-46,929
-49,272
-51,644
-54,043
-56,437
-58,778
-61,022
-63,188
-65,345
-67,519
-69,737
-72,023
-74,41
-77,076
-80,254
-84,128
-88,873
-94,578
-101,219
-108,894
-117,829
-128,036
-139,369
-151,388
-163,248
-174,31
-184,269
-192,673
-199,003
-203,061
-204,854
-205,205
-206,006
-208,823
-214,66
-224,381
-238,261
-255,729
-275,733
-295,725
-311,355
-318,537
-313,846
-293,897
-256,258
-200,087
-125,485
-37,031
56,058
145,961
226,63
297,888
364,284
423,155
464,892
471,339
421,167
310,29
148,384
-41,415
-224,062
-379,074
-495,433
-569,162
-613,053
-634,125
-635,463
-623,176
-594,431
-549,78
-496,162
-438,52
-384,013
-338,771
-304,507
-282,176
-272,244
-273,666
-283,86
-299,58
-317,625
-334,972
-350,177
-362,553
-370,838
-374,554
-374,244
-370,771
-365,561
-360,219
-355,306
-350,954
-347,518
-344,949
-343,129
-341,97
-340,949
-339,42
-337,073
-333,779
-329,495
-324,356
-318,408
-311,635
-304,133
-296,04
-287,503
-278,663
-269,616
-260,424
-251,137
-241,805
-232,489
-223,248
-214,126
-205,154
-196,345
-187,706
-179,278
-171,111
-163,255
-155,758
-148,649
-141,948
-135,689
-129,895
-124,588
-119,788
-115,507
-111,754
-108,549
-105,911
-103,86
-102,419
-101,597
-101,399
-101,828
-102,881
-104,553
-106,834
-109,714
-113,174
-117,198
-121,77
-126,868
-132,473
-138,559
-145,096
-152,053
-159,395
-167,085
-175,084
-183,354
-191,851
-200,533
-209,359
-218,284
-227,264
-236,257
-245,219
-254,108
-262,884
-271,506
-279,938
-288,147
-296,1
-303,764
-311,112
-318,115
-324,749
-330,989
-336,812
-342,196
-347,125
-351,586
-355,569
-359,066
-362,075
-364,597
-366,638
-368,21
-369,323
-369,988
-370,217
-370,022
-369,418
-368,424
-367,055
-365,329
-363,266
-360,89
-358,228
-355,31
-352,164
-348,815
-345,284
-341,593
-337,764
-333,822
-329,787
-325,673
-321,506
-317,318
-313,153
-309,069
-305,114
-301,32
-297,719
-294,332
-291,155
-288,172
-285,33
-282,553
-279,792
-277,014
-274,204
-271,377
-268,524
-265,638
-262,716
-259,713
-256,583
-253,273
-249,675
-245,726
-241,47
-237,014
-232,588
-228,485
-224,877
-221,962
-220,019
-219,075
-219,016
-219,549
-220,03
-219,989
-219,295
-217,676
-214,869
-211,151
-206,989
-203,296
-201,742
-203,402
-208,723
-218,4
-232,75
-251,001
-271,889
-293,06
-310,635
-321,366
-322,579
-311,078
-284,355
-241,454
-182,403
-109,112
-26,043
61,987
149,681
230,317
297,037
343,838
365,605
358,973
323,73
261,695
176,275
73,29
-39,206
-152,688
-258,642
-348,261
-417,799
-466,268
-490,565
-491,837
-469,698
-423,991
-366,939
-309,596
-263,06
-238,408
-230,189
-232,271
-239,208
-242,473
-244,355
-246,43
-247,585
-249,745
-250,62
-248,389
-244,199
-238,313
-231,813
-226,219
-221,718
-218,228
-215,709
-213,684
-211,682
-209,348
-206,355
-202,509
-197,794
-192,258
-185,927
-178,841
-171,024
-162,512
-153,335
-143,504
-133,04
-121,964
-110,342
-98,294
-85,968
-73,525
-61,079
-48,701
-36,441
-24,344
-12,454
-0,817
10,534
21,583
32,295
42,618
52,497
61,875
70,71
78,98
86,665
93,75
100,214
106,038
111,204
115,699
119,508
122,615
125,003
126,652
127,554
127,709
127,12
125,797
123,751
120,994
117,545
113,43
108,674
103,302
97,344
90,829
83,792
76,271
68,307
59,94
51,215
42,176
32,871
23,349
13,659
3,851
-6,027
-15,926
-25,796
-35,59
-45,262
-54,766
-64,063
-73,114
-81,884
-90,337
-98,444
-106,177
-113,512
-120,428
-126,905
-132,927
-138,478
-143,551
-148,141
-152,245
-155,867
-159,012
-161,694
-163,929
-165,74
-167,148
-168,175
-168,844
-169,179
-169,205
-168,946
-168,426
-167,668
-166,706
-165,574
-164,314
-162,962
-161,555
-160,122
-158,695
-157,299
-155,961
-154,698
-153,514
-152,425
-151,454
-150,643
-150,048
-149,713
-149,648
-149,863
-150,366
-151,156
-152,224
-153,526
-154,972
-156,483
-158,003
-159,514
-161,04
-162,572
-164,071
-165,486
-166,736
-167,799
-168,707
-169,447
-169,975
-170,261
-170,274
-170,12
-170,058
-170,309
-171,056
-172,423
-174,4
-177,114
-180,788
-185,425
-190,883
-196,718
-202,143
-206,615
-209,858
-211,425
-211,001
-208,617
-204,458
-199,639
-196,058
-195,196
-198,344
-206,56
-219,814
-237,246
-257,232
-276,39
-290,41
-295,212
-286,447
-260,425
-215,383
-151,066
-69,123
25,976
128,434
231,742
327,801
408,206
465,479
492,798
487,377
451,653
388,497
302,27
193,113
56,049
-104,585
-277,859
-441,371
-561,739
-622,163
-620,846
-570,483
-501,287
-433,394
-375,348
-330,146
-290,58
-253,547
-222,429
-200,871
-192,766
-198,158
-212,983
-231,841
-250,199
-265,741
-277,028
-282,946
-283,355
-278,676
-270,267
-260,549
-251,218
-242,976
-236,305
-231,335
-227,93
-225,903
-224,638
-223,197
-221,024
-217,908
-213,77
-208,666
-202,618
-195,598
-187,686
-179,031
-169,721
-159,8
-149,29
-138,216
-126,666
-114,772
-102,682
-90,5
-78,292
-66,118
-54,023
-42,052
-30,25
-18,641
-7,244
3,901
14,742
25,229
35,307
44,941
54,104
62,775
70,941
78,592
85,714
92,293
98,311
103,748
108,584
112,799
116,376
119,301
121,571
123,185
124,148
124,47
124,163
123,242
121,723
119,627
116,973
113,786
110,092
105,919
101,3
96,269
90,862
85,119
79,078
72,782
66,272
59,591
52,782
45,89
38,958
32,027
25,141
18,34
11,665
5,153
-1,16
-7,241
-13,058
-18,584
-23,792
-28,657
-33,159
-37,277
-40,995
-44,301
-47,185
-49,641
-51,669
-53,274
-54,464
-55,252
-55,653
-55,684
-55,366
-54,717
-53,754
-52,498
-50,964
-49,173
-47,153
-44,929
-42,53
-39,988
-37,335
-34,605
-31,83
-29,038
-26,252
-23,493
-20,777
-18,126
-15,563
-13,119
-10,841
-8,768
-6,929
-5,349
-4,04
-3,002
-2,225
-1,68
-1,315
-1,074
-0,896
-0,727
-0,526
-0,258
0,096
0,575
1,251
2,163
3,326
4,737
6,356
8,164
10,169
12,308
14,44
16,384
17,908
18,806
18,937
18,129
16,195
13,025
8,644
3,337
-2,342
-7,781
-12,444
-15,823
-17,34
-16,638
-13,865
-9,688
-5,367
-2,379
-1,758
-4,354
-11,263
-22,738
-37,678
-54,023
-68,298
-76,257
-74,432
-59,44
-27,493
23,973
95,926
187,825
296,453
414,664
533,532
644,851
741,272
821,738
889,157
940,353
968,224
960,307
900,999
787,585
627,081
432,176
225,66
27,568
-142,665
-262,473
-320,406
-313,538
-249,791
-149,768
-36,605
67,737
149,394
201,595
227,554
239,289
244,306
249,704
257,384
260,836
258,397
250,811
239,75
230,899
227,844
231,007
239,966
253,037
267,977
282,996
297,15
309,795
320,396
329,077
336,072
341,648
346,634
351,853
357,704
364,498
372,357
381,151
390,865
401,502
412,919
425,009
437,693
450,867
464,5
478,565
492,967
507,6
522,34
537,071
551,72
566,225
580,537
594,616
608,42
621,907
635,048
647,797
660,108
671,938
683,237
693,962
704,086
713,585
722,444
730,653
738,191
745,036
751,165
756,553
761,181
765,027
768,072
770,301
771,708
772,292
772,059
771,017
769,177
766,553
763,165
759,031
754,176
748,626
742,413
735,571
728,137
720,153
711,662
702,709
693,344
683,617
673,578
663,281
652,777
642,12
631,362
620,557
609,755
599,007
588,36
577,859
567,547
557,468
547,66
538,161
529,003
520,218
511,836
503,885
496,386
489,358
482,814
476,763
471,211
466,155
461,587
457,496
453,867
450,686
447,935
445,595
443,646
442,067
440,837
439,934
439,328
438,986
438,866
438,931
439,142
439,467
439,871
440,323
440,791
441,249
441,685
442,077
442,392
442,58
442,566
442,298
441,749
440,896
439,724
438,225
436,388
434,246
431,875
429,341
426,702
423,977
421,128
418,156
415,099
412,008
408,979
406,047
403,163
400,318
397,536
394,824
392,22
389,633
386,787
383,458
379,437
374,568
368,885
362,284
354,485
345,443
335,24
324,271
313,451
303,518
294,836
287,961
283,395
281,188
281,278
282,594
282,836
280,001
272,418
258,647
238,266
212,027
181,553
150,518
124,451
108,75
108,833
129,459
173,377
241,283
331,557
439,064
555,947
673,619
782,072
870,88
931,028
954,999
940,119
889,914
809,477
703,423
572,246
414,229
236,067
54,89
-101,42
-205,082
-245,131
-229,254
-181,383
-127,169
-80,858
-45,405
-14,932
15,097
43,954
68,603
84,871
91,811
91,898
88,135
83,669
80,89
80,609
82,914
87,571
93,792
100,691
107,53
113,536
118,057
120,924
122,272
122,367
121,719
120,792
119,92
119,484
119,749
120,841
122,874
125,881
129,828
134,706
140,496
147,144
154,626
162,891
171,847
181,409
191,461
201,872
212,518
223,267
234,011
244,671
255,174
265,459
275,484
285,204
294,582
303,594
312,199
320,355
328,029
335,181
341,781
347,806
353,231
358,041
362,218
365,741
368,589
370,742
372,178
372,88
372,828
372,005
370,401
368,011
364,835
360,882
356,163
350,69
344,483
337,565
329,96
321,698
312,808
303,325
293,284
282,726
271,69
260,221
248,366
236,172
223,69
210,97
198,062
185,02
171,895
158,739
145,6
132,526
119,562
106,751
94,134
81,751
69,638
57,83
46,359
35,254
24,543
14,253
4,403
-4,993
-13,922
-22,38
-30,362
-37,874
-44,924
-51,524
-57,686
-63,424
-68,752
-73,685
-78,243
-82,444
-86,305
-89,85
-93,106
-96,106
-98,887
-101,483
-103,927
-106,25
-108,482
-110,65
-112,789
-114,92
-117,057
-119,226
-121,459
-123,801
-126,317
-129,047
-132,011
-135,23
-138,716
-142,482
-146,534
-150,836
-155,315
-159,903
-164,546
-169,234
-173,994
-178,816
-183,672
-188,518
-193,292
-198,008
-202,696
-207,35
-211,923
-216,346
-220,614
-224,849
-229,303
-234,234
-239,83
-246,165
-253,309
-261,445
-270,605
-280,678
-291,348
-301,915
-311,798
-320,696
-328,259
-334,273
-338,977
-342,78
-346,474
-351,495
-358,892
-369,437
-384,075
-402,856
-424,688
-447,809
-469,384
-485,987
-494,885
-493,257
-477,9
-447,023
-400,449
-339,561
-267,787
-189,367
-108,478
-30,494
38,213
91,795
125,144
134,816
119,3
78,118
12,39
-74,267
-176,593
-288,144
-401,532
-510,002
-606,844
-685,555
-742,409
-776,466
-788,227
-780,056
-755,663
-718,817
-675,301
-632,069
-593,475
-561,804
-538,483
-523,535
-516,704
-518,028
-525,156
-534,058
-542,36
-548,846
-552,972
-555,148
-555,297
-552,665
-547,878
-542,677
-538,089
-534,71
-532,608
-531,159
-530,124
-529,739
-529,831
-529,874
-529,499
-528,365
-526,324
-523,57
-520,184
-516,106
-511,354
-505,97
-500,001
-493,568
-486,795
-479,748
-472,529
-465,254
-457,997
-450,835
-443,836
-437,037
-430,474
-424,177
-418,15
-412,398
-406,946
-401,834
-397,098
-392,772
-388,872
-385,408
-382,393
-379,839
-377,754
-376,143
-375,008
-374,355
-374,196
-374,546
-375,418
-376,825
-378,774
-381,263
-384,29
-387,847
-391,924
-396,51
-401,588
-407,14
-413,147
-419,591
-426,45
-433,703
-441,324
-449,284
-457,553
-466,099
-474,889
-483,888
-493,062
-502,374
-511,788
-521,267
-530,773
-540,272
-549,726
-559,099
-568,355
-577,46
-586,381
-595,089
-603,555
-611,754
-619,661
-627,253
-634,512
-641,419
-647,958
-654,113
-659,871
-665,222
-670,161
-674,683
-678,789
-682,483
-685,773
-688,674
-691,202
-693,371
-695,198
-696,699
-697,892
-698,793
-699,419
-699,783
-699,903
-699,803
-699,512
-699,061
-698,481
-697,799
-697,041
-696,232
-695,395
-694,553
-693,72
-692,899
-692,101
-691,35
-690,679
-690,144
-689,781
-689,597
-689,598
-689,787
-690,162
-690,711
-691,393
-692,115
-692,796
-693,381
-693,853
-694,237
-694,536
-694,722
-694,752
-694,567
-694,162
-693,585
-692,846
-691,921
-690,785
-689,424
-687,953
-686,643
-685,737
-685,42
-685,806
-686,876
-688,71
-691,485
-695,177
-699,603
-704,327
-708,617
-711,984
-714,257
-715,108
-714,244
-711,714
-707,662
-702,815
-698,621
-696,098
-695,903
-698,79
-704,793
-712,968
-721,89
-729,282
-732,039
-727,458
-712,895
-685,446
-643,481
-587,232
-518,296
-439,507
-354,793
-268,669
-186,592
-115,272
-60,998
-28,244
-20,032
-38,386
-83,707
-154,269
-246,233
-353,212
-467,593
-582,568
-691,325
-786,515
-862,083
-914,437
-942,31
-947,261
-932,394
-900,513
-855,837
-804,598
-752,984
-705,936
-666,585
-635,896
-614,228
-602,481
-600,166
-604,899
-613,445
-622,47
-629,967
-635,421
-638,356
-637,837
-633,513
-625,804
-615,94
-605,737
-596,186
-587,377
-579,315
-572,031
-565,498
-559,699
-554,255
-548,401
-541,683
-533,961
-525,207
-515,552
-505,069
-493,722
-481,565
-468,752
-455,413
-441,683
-427,671
-413,432
-399,062
-384,654
-370,282
-356,033
-341,966
-328,121
-314,535
-301,226
-288,208
-275,519
-263,204
-251,303
-239,856
-228,889
-218,422
-208,481
-199,081
-190,236
-181,953
-174,236
-167,092
-160,532
-154,567
-149,206
-144,461
-140,33
-136,807
-133,882
-131,537
-129,752
-128,504
-127,766
-127,507
-127,697
-128,302
-129,29
-130,625
-132,266
-134,172
-136,298
-138,596
-141,019
-143,517
-146,043
-148,546
-150,981
-153,298
-155,451
-157,397
-159,091
-160,494
-161,565
-162,266
-162,56
-162,419
-161,814
-160,722
-159,123
-157,001
-154,344
-151,144
-147,397
-143,101
-138,26
-132,877
-126,963
-120,531
-113,601
-106,198
-98,35
-90,094
-81,466
-72,509
-63,265
-53,779
-44,093
-34,249
-24,288
-14,249
-4,173
5,894
15,909
25,825
35,592
45,166
54,504
63,564
72,313
80,719
88,751
96,394
103,626
110,423
116,752
122,566
127,824
132,511
136,62
140,149
143,115
145,535
147,438
148,903
150,008
150,824
151,433
151,86
152,124
152,277
152,386
152,54
152,814
153,199
153,66
154,207
154,852
155,63
156,532
157,374
157,946
158,062
157,522
156,277
154,258
151,217
147,072
141,918
136,041
130,182
125,089
121,104
118,69
118,383
120,124
123,728
128,476
132,558
134,558
133,607
128,557
118,802
105,136
88,983
73,059
61,718
58,494
66,567
89,735
130,779
190,635
268,671
361,884
464,994
572,84
679,525
777,563
859,637
919,16
950,889
951,966
921,822
861,068
772,603
661,995
536,226
403,664
273,154
152,894
50,283
-28,472
-80,021
-103,687
-100,518
-73,942
-29,259
27,205
88,116
146,139
196,313
235,556
261,547
273,842
273,68
263,402
246,994
229,187
212,981
200,202
192,578
190,674
194,278
202,782
214,328
226,5
237,991
248,111
256,279
262,585
267,231
270,412
272,931
275,723
279,264
283,853
289,615
296,422
304,254
313,134
322,933
333,537
344,865
356,821
369,379
382,517
396,146
410,155
424,408
438,778
453,181
467,548
481,823
495,959
509,906
523,619
537,066
550,198
562,965
575,319
587,205
598,576
609,398
619,645
629,299
638,347
646,768
654,538
661,632
668,026
673,698
678,628
682,796
686,188
688,799
690,631
691,692
691,993
691,547
690,371
688,487
685,915
682,682
678,817
674,348
669,313
663,747
657,694
651,194
644,296
637,045
629,49
621,68
613,665
605,496
597,222
588,894
580,561
572,271
564,071
556,009
548,129
540,473
533,08
525,985
519,223
512,824
506,816
501,225
496,07
491,371
487,141
483,393
480,134
477,37
475,096
473,307
471,991
471,133
470,721
470,734
471,144
471,924
473,046
474,483
476,214
478,212
480,439
482,863
485,45
488,173
491,009
493,929
496,896
499,875
502,834
505,752
508,622
511,432
514,158
516,767
519,211
521,456
523,491
525,295
526,841
528,105
529,067
529,738
530,174
530,433
530,575
530,644
530,645
530,581
530,46
530,32
530,267
530,398
530,756
531,351
532,141
533,142
534,49
536,157
537,809
538,889
538,762
537,094
534,071
529,876
524,276
517,255
509,285
501,608
496,087
493,897
494,896
498,505
504,64
513,024
522,774
531,615
535,852
532,626
521,015
501,31
473,799
439,234
399,422
358,255
321,952
296,722
287,496
297,919
331,027
389,334
474,13
584,115
714,955
858,751
1004,745
1142,44
1263,618
1366,299
1451,865
1519,959
1564,77
1568,491
1513,205
1388,423
1192,167
945,336
679,134
425,651
222,68
89,62
26,641
26,27
63,332
116,415
177,904
236,626
291,286
341,656
378,287
403,822
419,492
423,836
423,046
415,552
400,533
382,177
361,677
342,599
328,378
319,844
317,539
320,76
327,869
336,881
345,797
353,484
359,385
363,077
364,553
363,983
361,697
358,563
355,557
353,227
351,888
351,672
352,517
354,444
357,488
361,54
366,448
372,104
378,406
385,315
392,827
400,861
409,304
418,02
426,844
435,653
444,361
452,891
461,18
469,17
476,802
484,03
490,831
497,171
503,017
508,331
513,065
517,189
520,686
523,546
525,768
527,344
528,257
528,492
528,034
526,87
524,99
522,384
519,039
514,948
510,116
504,55
498,266
491,279
483,605
475,262
466,275
456,668
446,471
435,714
424,428
412,65
400,42
387,779
374,772
361,443
347,837
333,999
319,975
305,812
291,556
277,255
262,952
248,694
234,525
220,492
206,637
193,003
179,624
166,537
153,774
141,364
129,335
117,71
106,511
95,757
85,468
75,657
66,339
57,521
49,208
41,399
34,091
27,273
20,93
15,044
9,595
4,56
-0,082
-4,351
-8,269
-11,859
-15,137
-18,129
-20,861
-23,364
-25,674
-27,828
-29,859
-31,802
-33,686
-35,537
-37,383
-39,244
-41,127
-43,049
-45,033
-47,114
-49,349
-51,785
-54,445
-57,348
-60,507
-63,922
-67,599
-71,508
-75,577
-79,732
-83,909
-88,066
-92,215
-96,365
-100,487
-104,544
-108,466
-112,213
-115,823
-119,315
-122,668
-125,851
-128,81
-131,602
-134,445
-137,586
-141,244
-145,59
-150,643
-156,48
-163,361
-171,345
-180,312
-189,904
-199,336
-207,958
-215,528
-221,681
-225,887
-228,105
-228,516
-227,848
-227,967
-230,403
-236,028
-246,057
-261,377
-281,493
-305,13
-329,655
-350,563
-364,08
-366,758
-353,892
-321,492
-267,274
-192,795
-104,566
-9,856
84,801
179,372
279,063
380,451
475,966
547,759
565,849
515,703
392,947
206,446
-10,275
-225,613
-410,115
-540,262
-614,933
-643,09
-641,73
-627,757
-606,845
-578,902
-539,339
-487,133
-428,333
-370,712
-322,203
-287,566
-268,127
-263,274
-270,633
-286,726
-307,141
-327,619
-345,468
-358,977
-366,717
-368,19
-363,68
-354,222
-342,003
-329,283
-317,292
-306,705
-297,973
-291,103
-285,928
-282,115
-278,891
-275,425
-271,319
-266,392
-260,556
-253,891
-246,431
-238,183
-229,267
-219,819
-209,903
-199,569
-188,871
-177,846
-166,592
-155,246
-143,896
-132,618
-121,479
-110,517
-99,772
-89,282
-79,064
-69,135
-59,531
-50,292
-41,46
-33,081
-25,183
-17,787
-10,909
-4,554
1,276
6,579
11,352
15,587
19,271
22,389
24,928
26,873
28,216
28,955
29,092
28,635
27,596
25,986
23,822
21,121
17,898
14,17
9,954
5,268
0,131
-5,432
-11,397
-17,736
-24,418
-31,412
-38,684
-46,199
-53,922
-61,817
-69,849
-77,986
-86,195
-94,442
-102,695
-110,92
-119,084
-127,155
-135,1
-142,887
-150,484
-157,865
-165,003
-171,876
-178,467
-184,755
-190,725
-196,362
-201,653
-206,585
-211,145
-215,321
-219,103
-222,484
-225,463
-228,039
-230,217
-232,004
-233,415
-234,465
-235,173
-235,556
-235,63
-235,409
-234,911
-234,151
-233,145
-231,91
-230,463
-228,824
-227,019
-225,079
-223,028
-220,892
-218,691
-216,441
-214,162
-211,878
-209,601
-207,34
-205,115
-202,949
-200,886
-198,983
-197,281
-195,805
-194,574
-193,603
-192,904
-192,473
-192,269
-192,221
-192,251
-192,303
-192,365
-192,449
-192,541
-192,618
-192,636
-192,544
-192,342
-192,04
-191,606
-190,964
-190,063
-188,935
-187,727
-186,721
-186,19
-186,304
-187,212
-189,109
-192,089
-196,092
-200,887
-205,907
-210,526
-214,379
-217,062
-218,182
-217,9
-216,643
-215,232
-215,286
-218,173
-224,751
-236,134
-253,021
-274,699
-299,764
-325,598
-347,857
-362,767
-367,007
-356,637
-328,633
-281,891
-216,65
-135,428
-43,522
53,527
149,504
236,766
308,034
357,049
378,839
370,677
332,709
267,024
177,935
72,046
-42,911
-158,512
-266,583
-359,623
-431,822
-480,122
-504,062
-505,392
-487,678
-455,753
-414,962
-371,44
-330,936
-297,026
-271,538
-254,88
-246,135
-243,879
-246,374
-251,008
-255,145
-257,285
-256,734
-253,585
-248,578
-242,368
-235,564
-228,996
-223,387
-219,077
-216,134
-214,281
-213,026
-211,935
-210,638
-208,867
-206,489
-203,434
-199,688
-195,258
-190,14
-184,359
-177,952
-170,932
-163,311
-155,102
-146,322
-137,055
-127,433
-117,594
-107,683
-97,797
-87,984
-78,294
-68,772
-59,455
-50,382
-41,569
-33,021
-24,766
-16,848
-9,306
-2,186
4,488
10,71
16,468
21,755
26,563
30,878
34,694
38,002
40,79
43,042
44,742
45,873
46,428
46,404
45,803
44,63
42,894
40,606
37,783
34,442
30,603
26,282
21,502
16,282
10,646
4,619
-1,772
-8,498
-15,528
-22,828
-30,363
-38,099
-45,998
-54,025
-62,142
-70,315
-78,508
-86,688
-94,824
-102,883
-110,833
-118,642
-126,28
-133,718
-140,928
-147,884
-154,563
-160,94
-166,999
-172,726
-178,106
-183,132
-187,792
-192,081
-195,991
-199,52
-202,664
-205,422
-207,793
-209,782
-211,395
-212,643
-213,542
-214,108
-214,365
-214,335
-214,044
-213,515
-212,776
-211,844
-210,744
-209,496
-208,119
-206,636
-205,072
-203,45
-201,799
-200,149
-198,527
-196,961
-195,474
-194,082
-192,808
-191,672
-190,682
-189,855
-189,215
-188,788
-188,625
-188,767
-189,23
-190,034
-191,188
-192,68
-194,504
-196,631
-198,982
-201,489
-204,077
-206,673
-209,258
-211,816
-214,303
-216,667
-218,842
-220,783
-222,51
-224,055
-225,4
-226,52
-227,416
-228,178
-229,043
-230,275
-232,122
-234,758
-238,328
-243,065
-249,059
-256,253
-264,384
-272,821
-280,92
-288,3
-294,506
-299,02
-301,943
-303,604
-304,73
-307,036
-311,785
-319,607
-331,494
-347,979
-368,176
-390,551
-412,28
-428,842
-436,713
-432,921
-413,817
-376,922
-321,472
-248,095
-159,985
-62,442
39,492
139,833
231,299
307,308
361,716
389,885
389,7
360,426
302,857
220,676
119,519
6,012
-111,693
-226,126
-330,515
-417,688
-482,963
-524,906
-543,838
-542,157
-524,226
-494,269
-457,426
-420,322
-387,502
-361,442
-343,598
-333,572
-330,065
-332,058
-337,535
-343,471
-348,043
-350,281
-349,753
-347,157
-343,241
-338,46
-333,671
-329,835
-327,403
-326,582
-327,29
-329,014
-331,323
-333,831
-336,082
-337,797
-338,828
-339,082
-338,554
-337,24
-335,113
-332,187
-328,491
-324,032
-318,836
-312,917
-306,307
-299,114
-291,461
-283,489
-275,348
-267,124
-258,878
-250,671
-242,547
-234,546
-226,708
-219,041
-211,553
-204,274
-197,236
-190,475
-184,028
-177,908
-172,123
-166,684
-161,595
-156,863
-152,5
-148,511
-144,906
-141,699
-138,905
-136,539
-134,62
-133,157
-132,154
-131,612
-131,529
-131,899
-132,714
-133,963
-135,631
-137,705
-140,169
-143,009
-146,207
-149,747
-153,606
-157,766
-162,202
-166,89
-171,803
-176,914
-182,194
-187,614
-193,144
-198,754
-204,413
-210,094
-215,766
-221,402
-226,973
-232,451
-237,809
-243,019
-248,054
-252,89
-257,503
-261,869
-265,967
-269,777
-273,282
-276,466
-279,317
-281,823
-283,974
-285,763
-287,183
-288,228
-288,897
-289,186
-289,095
-288,627
-287,783
-286,569
-284,994
-283,07
-280,814
-278,245
-275,382
-272,247
-268,863
-265,254
-261,444
-257,451
-253,294
-248,988
-244,554
-240,013
-235,387
-230,7
-225,977
-221,243
-216,522
-211,837
-207,204
-202,64
-198,157
-193,759
-189,456
-185,266
-181,216
-177,347
-173,695
-170,28
-167,117
-164,215
-161,567
-159,158
-156,957
-154,902
-152,936
-151,004
-149,055
-147,06
-145
-142,847
-140,555
-138,044
-135,253
-132,177
-128,837
-125,263
-121,484
-117,502
-113,378
-109,282
-105,423
-102,006
-99,225
-97,185
-95,992
-95,871
-96,964
-99,288
-102,644
-106,413
-109,882
-112,526
-113,813
-113,126
-110,174
-104,981
-98,141
-91,402
-86,678
-85,394
-88,957
-98,477
-114,039
-134,654
-157,865
-178,998
-192,92
-195,312
-181,577
-147,327
-89,699
-7,641
95,501
211,233
330,809
447,448
559,114
666,424
764,647
843,301
884,577
870,505
794,202
658,159
477,55
276,271
78,468
-89,225
-209,229
-277,081
-296,964
-287,849
-264,402
-232,087
-199,121
-163,245
-127,488
-102,976
-87,199
-80,029
-79,534
-76,938
-74,562
-74,619
-75,554
-78,467
-80,537
-79,004
-74,635
-68,138
-60,576
-53,186
-46,505
-40,976
-36,984
-34,615
-33,633
-33,608
-34,165
-34,948
-35,601
-35,839
-35,437
-34,259
-32,243
-29,34
-25,486
-20,639
-14,804
-8,009
-0,288
8,322
17,78
28,015
38,921
50,376
62,254
74,429
86,802
99,293
111,826
124,333
136,757
149,048
161,171
173,104
184,811
196,25
207,382
218,167
228,576
238,584
248,163
257,292
265,945
274,095
281,717
288,781
295,258
301,118
306,334
310,877
314,724
317,861
320,276
321,965
322,928
323,166
322,686
321,5
319,62
317,064
313,849
309,998
305,534
300,486
294,886
288,769
282,172
275,136
267,705
259,921
251,834
243,491
234,942
226,238
217,429
208,565
199,697
190,876
182,15
173,569
165,18
157,03
149,161
141,616
134,432
127,648
121,296
115,405
110
105,102
100,729
96,897
93,617
90,899
88,746
87,162
86,147
85,697
85,806
86,462
87,65
89,349
91,534
94,173
97,236
100,687
104,488
108,602
112,993
117,625
122,465
127,482
132,641
137,905
143,237
148,6
153,956
159,268
164,501
169,623
174,611
179,442
184,098
188,567
192,837
196,884
200,681
204,18
207,34
210,144
212,579
214,64
216,336
217,686
218,726
219,532
220,179
220,737
221,274
221,825
222,419
223,105
223,948
225,045
226,471
228,229
230,301
232,666
235,309
238,231
241,361
244,484
247,335
249,664
251,234
251,923
251,593
249,965
246,899
242,421
236,801
230,771
225,106
220,283
216,825
215,354
216,066
218,904
223,259
227,309
229,211
227,743
221,701
210,329
194,003
173,964
152,707
134,833
125,406
128,845
149,342
190,431
254,216
341,077
449,44
572,544
699,857
822,308
932,119
1027,425
1110,841
1177,958
1218,844
1218,329
1159,509
1040,321
869,059
660,143
437,452
220,049
28,071
-114,094
-197,093
-221,001
-197,601
-153,053
-103,331
-55,204
-10,161
39,232
94,021
149,39
200,859
241,715
268,461
282,118
284,44
277,972
265,809
250,053
232,692
216,631
204,202
196,495
193,976
196,284
202,336
211,367
222,441
233,906
244,607
254,027
261,923
268,626
274,642
280,234
285,823
292,046
299,264
307,644
317,222
327,787
339,161
351,255
363,917
376,987
390,334
403,826
417,356
430,851
444,227
457,402
470,298
482,84
494,975
506,659
517,855
528,536
538,663
548,195
557,09
565,3
572,783
579,508
585,447
590,585
594,905
598,39
601,028
602,812
603,732
603,778
602,941
601,21
598,58
595,061
590,663
585,403
579,306
572,392
564,692
556,238
547,062
537,202
526,693
515,572
503,881
491,664
478,969
465,844
452,34
438,507
424,399
410,068
395,569
380,956
366,28
351,592
336,943
322,383
307,961
293,723
279,713
265,974
252,549
239,476
226,793
214,532
202,723
191,395
180,572
170,274
160,519
151,318
142,68
134,613
127,119
120,199
113,85
108,067
102,839
98,155
94,003
90,364
87,216
84,53
82,275
80,417
78,925
77,761
76,886
76,262
75,853
75,627
75,554
75,601
75,731
75,906
76,085
76,233
76,314
76,29
76,126
75,791
75,257
74,51
73,541
72,332
70,862
69,103
67,009
64,55
61,708
58,469
54,829
50,794
46,382
41,634
36,618
31,385
25,992
20,479
14,872
9,223
3,57
-2,035
-7,509
-12,785
-17,825
-22,621
-27,188
-31,585
-35,839
-39,995
-44,181
-48,532
-53,228
-58,452
-64,336
-70,991
-78,547
-87,241
-97,222
-108,441
-120,569
-132,872
-144,566
-155,068
-163,833
-170,167
-173,695
-174,551
-173,526
-172,601
-173,863
-178,679
-188,283
-203,619
-224,623
-250,201
-277,763
-302,429
-318,981
-323,124
-310,378
-276,758
-219,753
-137,858
-33,714
84,38
207,903
328,141
440,059
546,594
646,887
735,675
803,131
825,976
784,196
668,731
475,202
221,854
-56,548
-325,303
-542,722
-681,837
-742,652
-735,653
-682,402
-605,329
-515,999
-425,475
-347,917
-294,584
-271,815
-275,819
-291,549
-305,397
-310,756
-308,734
-307,094
-310,286
-317,972
-327,554
-334,155
-334,997
-330,48
-321,712
-310,727
-299,873
-290,069
-281,594
-274,785
-269,679
-266,175
-264,144
-262,993
-261,713
-259,732
-256,799
-252,721
-247,554
-241,295
-233,841
-225,267
-215,742
-205,372
-194,258
-182,472
-170,013
-156,962
-143,458
-129,639
-115,679
-101,71
-87,817
-74,089
-60,596
-47,4
-34,564
-22,133
-10,133
1,394
12,407
22,865
32,715
41,924
50,468
58,329
65,502
71,975
77,733
82,756
87,027
90,531
93,252
95,179
96,295
96,594
96,076
94,748
92,623
89,718
86,05
81,642
76,518
70,705
64,235
57,139
49,453
41,212
32,459
23,235
13,585
3,556
-6,804
-17,449
-28,328
-39,394
-50,597
-61,889
-73,222
-84,549
-95,823
-107,001
-118,039
-128,894
-139,525
-149,895
-159,968
-169,71
-179,089
-188,077
-196,647
-204,776
-212,445
-219,635
-226,333
-232,527
-238,209
-243,374
-248,021
-252,15
-255,767
-258,878
-261,49
-263,616
-265,27
-266,468
-267,226
-267,566
-267,509
-267,083
-266,32
-265,25
-263,905
-262,319
-260,527
-258,565
-256,465
-254,256
-251,962
-249,61
-247,229
-244,85
-242,502
-240,209
-237,994
-235,881
-233,897
-232,059
-230,385
-228,879
-227,543
-226,385
-225,425
-224,688
-224,208
-224,014
-224,114
-224,525
-225,261
-226,32
-227,69
-229,338
-231,193
-233,2
-235,314
-237,486
-239,675
-241,813
-243,814
-245,601
-247,084
-248,192
-248,883
-249,126
-248,904
-248,243
-247,171
-245,765
-244,194
-242,629
-241,271
-240,34
-239,998
-240,497
-242,18
-245,282
-249,905
-255,886
-262,684
-269,662
-276,268
-281,814
-285,542
-286,926
-285,723
-282,585
-279,189
-277,461
-279,222
-286,024
-299,047
-318,941
-345,467
-376,367
-407,234
-432,7
-447,098
-444,973
-421,296
-371,503
-291,87
-183,222
-52,298
92,426
241,386
388,916
537,983
688,807
833,051
955,503
1028,093
1022,929
931,784
757,804
518,081
247,957
-24,227
-269,197
-453,698
-569,369
-617,656
-611,846
-583,679
-549,252
-513,824
-478,317
-433,344
-378,771
-322,806
-271,819
-233,123
-210,348
-201,907
-205,272
-217,098
-232,913
-248,3
-260,661
-268,517
-270,58
-266,748
-257,565
-243,815
-227,557
-211,368
-196,608
-184,001
-174,067
-166,643
-161,505
-158,417
-156,533
-154,791
-152,508
-149,241
-144,766
-139,135
-132,335
-124,311
-115,133
-104,906
-93,735
-81,723
-68,925
-55,36
-41,088
-26,215
-10,875
4,767
20,548
36,342
52,055
67,611
82,943
97,989
112,687
126,988
140,868
154,296
167,227
179,62
191,427
202,613
213,16
223,058
232,294
240,845
248,686
255,789
262,133
267,697
272,459
276,397
279,487
281,716
283,08
283,58
283,222
282,014
279,965
277,09
273,41
268,947
263,726
257,775
251,125
243,809
235,865
227,335
218,26
208,684
198,654
188,216
177,42
166,315
154,951
143,379
131,649
119,813
107,923
96,029
84,18
72,425
60,81
49,382
38,183
27,255
16,636
6,365
-3,526
-13,003
-22,037
-30,603
-38,676
-46,238
-53,271
-59,763
-65,705
-71,091
-75,919
-80,189
-83,903
-87,069
-89,693
-91,788
-93,367
-94,445
-95,042
-95,182
-94,893
-94,207
-93,158
-91,779
-90,105
-88,175
-86,024
-83,686
-81,19
-78,565
-75,84
-73,048
-70,226
-67,409
-64,631
-61,924
-59,325
-56,864
-54,57
-52,464
-50,558
-48,857
-47,374
-46,124
-45,134
-44,445
-44,088
-44,081
-44,437
-45,159
-46,237
-47,654
-49,363
-51,294
-53,387
-55,579
-57,825
-60,101
-62,363
-64,577
-66,696
-68,641
-70,349
-71,788
-72,949
-73,849
-74,543
-75,062
-75,465
-75,903
-76,542
-77,586
-79,234
-81,623
-84,86
-89,07
-94,487
-101,242
-109,267
-118,221
-127,396
-136,058
-143,668
-149,669
-153,307
-154,112
-152,134
-148,084
-143,769
-141,092
-141,333
-145,706
-155,272
-170,206
-189,538
-210,739
-229,351
-240,562
-239,869
-222,675
-184,922
-123,235
-37,695
66,731
183,568
305,304
427,759
553,692
681,878
803,268
902,75
955,288
939,831
852,613
699,668
495,764
263,68
22,453
-207,155
-396,085
-522,668
-578,085
-567,08
-513,75
-446,13
-380,676
-324,201
-273,456
-220,987
-166,392
-113,702
-68,749
-37,954
-22,409
-19,827
-27,056
-39,767
-55,102
-71,163
-85,337
-95,622
-101,206
-101,818
-98,109
-91,438
-82,662
-72,701
-62,996
-54,46
-47,475
-42,13
-37,964
-34,415
-31,185
-27,841
-23,789
-18,685
-12,334
-4,693
4,047
13,752
24,36
35,751
47,797
60,374
73,345
86,594
100,038
113,595
127,187
140,74
154,177
167,447
180,504
193,32
205,873
218,119
230,009
241,497
252,53
263,064
273,068
282,507
291,354
299,589
307,187
314,123
320,38
325,933
330,758
334,829
338,122
340,618
342,309
343,191
343,266
342,541
341,023
338,725
335,665
331,858
327,323
322,082
316,158
309,58
302,379
294,591
286,253
277,408
268,096
258,364
248,255
237,815
227,089
216,124
204,966
193,662
182,259
170,801
159,336
147,909
136,565
125,346
114,292
103,44
92,826
82,484
72,445
62,74
53,395
44,437
35,89
27,775
20,113
12,921
6,212
-0,005
-5,725
-10,943
-15,66
-19,876
-23,596
-26,827
-29,575
-31,849
-33,657
-35,012
-35,93
-36,429
-36,53
-36,254
-35,63
-34,687
-33,456
-31,965
-30,243
-28,314
-26,205
-23,937
-21,534
-19,014
-16,396
-13,706
-10,975
-8,233
-5,51
-2,833
-0,223
2,299
4,716
7,009
9,174
11,214
13,123
14,885
16,468
17,819
18,905
19,719
20,259
20,524
20,523
20,271
19,823
19,276
18,715
18,196
17,734
17,298
16,886
16,528
16,265
16,165
16,239
16,448
16,792
17,302
17,991
18,859
19,771
20,437
20,62
20,123
18,829
16,758
13,805
9,782
4,707
-1,277
-7,741
-13,941
-19,361
-23,744
-26,655
-27,749
-26,994
-24,44
-20,999
-18,387
-17,957
-20,919
-28,293
-40,05
-55,33
-72,704
-89,128
-100,432
-102,686
-91,633
-63,614
-17,311
46,987
127,538
219,939
317,985
414,739
501,787
570,688
615,394
631,402
615,582
568,024
491,628
391,356
274,943
151,537
29,263
-84,084
-180,648
-254,913
-304,278
-328,505
-330,243
-313,983
-284,18
-245,868
-205,191
-167,432
-135,977
-112,565
-97,038
-88,154
-84,73
-85,205
-87,252
-88,632
-87,966
-84,745
-79,355
-72,607
-65,149
-57,572
-50,594
-44,895
-40,837
-38,436
-37,414
-37,285
-37,614
-38,058
-38,295
-38,081
-37,279
-35,785
-33,531
-30,513
-26,728
-22,176
-16,889
-10,88
-4,166
3,195
11,125
19,516
28,241
37,175
46,205
55,24
64,216
73,076
81,771
90,266
98,532
106,55
114,304
121,77
128,915
135,713
142,14
148,183
153,831
159,076
163,914
168,336
172,333
175,892
178,997
181,631
183,779
185,421
186,541
187,128
187,174
186,68
185,647
184,083
181,994
179,389
176,281
172,684
168,612
164,081
159,107
153,711
147,916
141,746
135,228
128,389
121,26
113,87
106,25
98,429
90,439
82,31
74,072
65,756
57,393
49,014
40,652
32,337
24,103
15,979
7,993
0,173
-7,456
-14,869
-22,046
-28,964
-35,606
-41,953
-47,989
-53,698
-59,066
-64,08
-68,733
-73,018
-76,933
-80,477
-83,648
-86,451
-88,889
-90,968
-92,693
-94,07
-95,104
-95,807
-96,189
-96,265
-96,052
-95,57
-94,842
-93,896
-92,759
-91,459
-90,022
-88,47
-86,828
-85,117
-83,356
-81,563
-79,758
-77,963
-76,203
-74,507
-72,903
-71,412
-70,057
-68,852
-67,813
-66,955
-66,282
-65,791
-65,489
-65,39
-65,522
-65,937
-66,662
-67,707
-69,08
-70,785
-72,819
-75,17
-77,787
-80,576
-83,458
-86,367
-89,281
-92,219
-95,161
-98,075
-100,91
-103,598
-106,141
-108,557
-110,824
-112,883
-114,667
-116,168
-117,519
-118,978
-120,783
-123,124
-126,077
-129,704
-134,233
-139,734
-146,109
-153,07
-159,906
-165,953
-170,891
-174,334
-175,812
-175,396
-173,371
-170,421
-168,342
-168,76
-172,767
-181,745
-196,494
-216,283
-239,654
-264,001
-284,843
-297,937
-299,441
-284,838
-250,832
-196,772
-123,594
-34,342
65,068
168,088
267,633
354,975
421,885
462,651
473,121
451,083
397,955
317,334
214,511
97,554
-24,288
-142,93
-250,489
-339,417
-405,446
-447,047
-464,498
-460,917
-441,147
-409,733
-372,164
-334,916
-302,295
-276,709
-259,471
-249,932
-246,594
-248,303
-253,034
-257,926
-261,285
-262,217
-260,368
-256,47
-251,329
-245,439
-239,63
-234,814
-231,4
-229,587
-229,31
-230,081
-231,482
-233,135
-234,59
-235,579
-235,972
-235,676
-234,679
-232,979
-230,544
-227,393
-223,561
-219,056
-213,901
-208,111
-201,714
-194,815
-187,534
-180,008
-172,385
-164,752
-157,168
-149,694
-142,372
-135,239
-128,333
-121,66
-115,222
-109,043
-103,152
-97,581
-92,362
-87,506
-83,018
-78,904
-75,166
-71,808
-68,837
-66,257
-64,074
-62,301
-60,949
-60,034
-59,571
-59,568
-60,029
-60,955
-62,343
-64,188
-66,482
-69,216
-72,378
-75,957
-79,942
-84,319
-89,077
-94,2
-99,671
-105,473
-111,586
-117,988
-124,658
-131,572
-138,707
-146,038
-153,541
-161,191
-168,963
-176,831
-184,771
-192,756
-200,761
-208,76
-216,726
-224,636
-232,464
-240,187
-247,783
-255,23
-262,507
-269,593
-276,47
-283,119
-289,524
-295,667
-301,531
-307,103
-312,369
-317,317
-321,939
-326,227
-330,173
-333,772
-337,019
-339,912
-342,45
-344,631
-346,457
-347,928
-349,05
-349,831
-350,286
-350,428
-350,275
-349,842
-349,149
-348,216
-347,062
-345,703
-344,151
-342,418
-340,518
-338,469
-336,291
-334,007
-331,638
-329,209
-326,746
-324,273
-321,81
-319,377
-316,983
-314,637
-312,351
-310,139
-308,028
-306,06
-304,266
-302,668
-301,28
-300,104
-299,129
-298,336
-297,686
-297,118
-296,573
-295,989
-295,321
-294,534
-293,601
-292,516
-291,241
-289,713
-287,892
-285,765
-283,363
-280,75
-277,987
-275,115
-272,199
-269,376
-266,837
-264,791
-263,43
-262,912
-263,307
-264,703
-267,317
-271,218
-276,273
-282,145
-288,106
-293,414
-297,644
-300,251
-300,537
-298,349
-293,811
-287,573
-281,335
-276,491
-273,876
-274,663
-279,645
-288,243
-299,215
-310,048
-316,512
-315,069
-302,554
-275,134
-229,857
-165,597
-82,735
15,975
125,249
239,576
352,526
456,383
543,545
606,52
639,401
638,828
603,543
536,599
443,566
328,443
198,459
59,034
-85,062
-218,747
-330,211
-408,833
-444,965
-445,587
-418,662
-373,042
-321,606
-267,466
-214,143
-166,218
-124,004
-91,474
-71,956
-64,431
-67,353
-76,867
-87,62
-96,782
-103,079
-105,313
-102,761
-95,351
-83,463
-68,625
-53,323
-39,004
-26,156
-15,1
-5,871
1,601
7,409
12,124
16,78
22,001
28,041
35,052
42,955
51,741
61,499
72,18
83,637
95,772
108,503
121,764
135,558
149,819
164,423
179,248
194,138
208,971
223,672
238,168
252,4
266,321
279,882
293,042
