Name,Alessandro
Date of Birth,"25 Sep 2006"
Recorded Date,2024-09-03 22:05:56 +0200
Classification,Sinus Rhythm
Symptoms,
Software Version,1.90
Device,"Watch7,2"
Sample Rate,512 hertz


Lead,Lead I
Unit,µV

94,151
94,116
93,772
93,101
92,082
90,696
88,924
86,748
84,151
81,12
77,645
73,718
69,337
64,498
59,203
53,458
47,275
40,666
33,645
26,224
18,416
10,246
1,74
-7,076
-16,166
-25,497
-35,029
-44,706
-54,476
-64,284
-74,064
-83,769
-93,348
-102,751
-111,94
-120,858
-129,441
-137,647
-145,411
-152,677
-159,427
-165,61
-171,184
-176,213
-180,787
-185,079
-189,399
-193,974
-198,998
-204,727
-211,291
-218,663
-226,701
-234,893
-242,463
-248,722
-252,889
-254,187
-252,225
-246,851
-238,242
-227,308
-215,296
-203,578
-193,975
-188,216
-187,445
-192,385
-203,067
-218,491
-237,114
-256,668
-273,702
-284,437
-285,224
-272,587
-243,721
-196,575
-129,838
-43,644
60,085
178,222
306,581
440,233
572,702
695,727
801,462
883,037
938,429
970,552
980,809
969,879
932,479
857,296
738,331
573,799
372,064
154,133
-57,036
-238,08
-372,456
-455,514
-491,547
-490,878
-462,949
-415,468
-353,963
-283,773
-215,691
-160,3
-123,614
-106,783
-102,385
-100,217
-95,102
-85,773
-75,122
-68,11
-66,053
-67,359
-69,544
-69,576
-66,039
-59,386
-50,555
-40,573
-30,259
-20,275
-11,224
-3,785
1,311
3,854
4,013
2,09
-1,432
-6,087
-11,49
-17,173
-22,605
-27,405
-31,316
-34,191
-36,023
-36,818
-36,568
-35,308
-33,097
-30,012
-26,153
-21,624
-16,514
-10,917
-4,943
1,297
7,673
14,044
20,29
26,331
32,11
37,601
42,788
47,656
52,206
56,463
60,46
64,234
67,819
71,237
74,521
77,71
80,853
84,005
87,209
90,497
93,892
97,411
101,067
104,873
108,834
112,949
117,219
121,644
126,217
130,934
135,783
140,743
145,79
150,888
155,998
161,085
166,114
171,055
175,884
180,578
185,117
189,48
193,64
197,581
201,302
204,81
208,115
211,238
214,198
217,025
219,768
222,459
225,114
227,741
230,332
232,873
235,34
237,707
239,945
242,005
243,82
245,307
246,362
246,879
246,756
245,876
244,105
241,333
237,479
232,47
226,255
218,79
210,044
200
188,66
176,046
162,195
147,185
131,129
114,148
96,372
77,951
59,056
39,849
20,482
1,111
-18,114
-37,031
-55,469
-73,274
-90,311
-106,457
-121,592
-135,633
-148,537
-160,275
-170,836
-180,228
-188,474
-195,61
-201,676
-206,732
-210,847
-214,119
-216,67
-218,613
-220,042
-221,057
-221,754
-222,212
-222,489
-222,629
-222,655
-222,586
-222,436
-222,214
-221,92
-221,541
-221,056
-220,423
-219,583
-218,489
-217,111
-215,417
-213,382
-210,991
-208,234
-205,121
-201,674
-197,916
-193,869
-189,557
-185,003
-180,242
-175,311
-170,253
-165,119
-159,95
-154,781
-149,643
-144,562
-139,56
-134,655
-129,858
-125,171
-120,596
-116,138
-111,802
-107,592
-103,509
-99,552
-95,718
-92,005
-88,409
-84,929
-81,563
-78,308
-75,165
-72,131
-69,207
-66,394
-63,692
-61,1
-58,614
-56,232
-53,949
-51,762
-49,668
-47,66
-45,736
-43,889
-42,117
-40,415
-38,78
-37,206
-35,691
-34,23
-32,818
-31,454
-30,132
-28,849
-27,603
-26,389
-25,205
-24,048
-22,916
-21,806
-20,715
-19,64
-18,58
-17,531
-16,491
-15,458
-14,43
-13,405
-12,38
-11,355
-10,327
-9,296
-8,259
-7,216
-6,166
-5,108
-4,042
-2,967
-1,884
-0,792
0,308
1,415
2,529
3,649
4,772
5,899
7,026
8,153
9,276
10,395
11,507
12,61
13,701
14,777
15,836
16,875
17,891
18,879
19,837
20,76
21,645
22,488
23,285
24,032
24,725
25,359
25,931
26,437
26,874
27,237
27,523
27,73
27,855
27,895
27,848
27,713
27,487
27,17
26,76
26,258
25,661
24,971
24,186
23,308
22,337
21,273
20,118
18,874
17,542
16,125
14,625
13,045
11,388
9,657
7,856
5,988
4,058
2,069
0,025
-2,07
-4,21
-6,394
-8,617
-10,875
-13,166
-15,485
-17,832
-20,203
-22,597
-25,011
-27,444
-29,896
-32,365
-34,851
-37,354
-39,874
-42,411
-44,966
-47,541
-50,136
-52,754
-55,398
-58,069
-60,77
-63,504
-66,274
-69,085
-71,939
-74,84
-77,793
-80,8
-83,867
-86,997
-90,194
-93,461
-96,802
-100,22
-103,717
-107,296
-110,957
-114,704
-118,537
-122,456
-126,462
-130,555
-134,735
-138,999
-143,349
-147,78
-152,293
-156,883
-161,548
-166,284
-171,09
-175,959
-180,889
-185,875
-190,912
-195,995
-201,12
-206,28
-211,471
-216,687
-221,922
-227,17
-232,425
-237,682
-242,937
-248,182
-253,414
-258,627
-263,817
-268,98
-274,111
-279,206
-284,261
-289,273
-294,238
-299,153
-304,014
-308,818
-313,562
-318,243
-322,859
-327,405
-331,879
-336,278
-340,599
-344,839
-348,994
-353,061
-357,036
-360,915
-364,695
-368,371
-371,939
-375,394
-378,733
-381,949
-385,039
-387,997
-390,816
-393,493
-396,02
-398,391
-400,601
-402,644
-404,513
-406,205
-407,713
-409,033
-410,16
-411,092
-411,825
-412,355
-412,681
-412,8
-412,713
-412,421
-411,924
-411,226
-410,332
-409,248
-407,984
-406,55
-404,956
-403,216
-401,344
-399,357
-397,273
-395,112
-392,891
-390,633
-388,357
-386,085
-383,839
-381,64
-379,507
-377,461
-375,52
-373,702
-372,029
-370,516
-369,173
-368,009
-367,028
-366,237
-365,647
-365,269
-365,104
-365,16
-365,441
-365,946
-366,678
-367,625
-368,761
-370,053
-371,457
-372,933
-374,453
-375,991
-377,53
-379,039
-380,47
-381,773
-382,899
-383,793
-384,413
-384,707
-384,608
-384,149
-383,451
-382,687
-382,139
-382,03
-382,507
-383,786
-386,028
-389,161
-393,011
-397,223
-401,219
-404,629
-407,127
-408,175
-407,469
-405,06
-401,124
-396,183
-390,966
-385,902
-381,691
-379,456
-379,865
-383,315
-390,073
-399,847
-412,258
-425,977
-437,841
-444,538
-443,944
-436,945
-426,223
-411,423
-387,35
-343,423
-269,337
-162,421
-28,428
119,173
266,311
403,082
523,057
624,112
703,597
759,782
793,818
804,828
793,263
755,674
682,395
567,718
408,373
210,429
-6,222
-218,008
-399,852
-533,562
-614,235
-647,138
-643,819
-614,34
-566,256
-504,71
-435,222
-369,427
-318,408
-287,963
-277,849
-278,762
-279,622
-275,235
-265,384
-254,341
-247,45
-246,044
-248,539
-252,251
-254,325
-253,537
-249,81
-243,581
-235,664
-226,659
-217,143
-207,726
-198,897
-191,243
-185,337
-181,376
-179,269
-178,773
-179,48
-181,011
-183,099
-185,41
-187,575
-189,333
-190,477
-190,875
-190,521
-189,422
-187,573
-185,01
-181,773
-177,898
-173,458
-168,533
-163,195
-157,519
-151,559
-145,359
-138,989
-132,534
-126,096
-119,765
-113,589
-107,595
-101,8
-96,216
-90,855
-85,709
-80,743
-75,913
-71,18
-66,513
-61,892
-57,292
-52,675
-47,994
-43,197
-38,244
-33,105
-27,753
-22,16
-16,293
-10,127
-3,657
3,109
10,161
17,484
25,063
32,877
40,887
49,053
57,338
65,711
74,152
82,638
91,134
99,599
107,988
116,261
124,4
132,398
140,248
147,962
155,567
163,111
170,675
178,325
186,099
194,017
202,075
210,261
218,574
227,013
235,569
244,231
252,963
261,706
270,388
278,897
287,079
294,746
301,66
307,594
312,372
315,837
317,862
318,347
317,187
314,286
309,563
302,929
294,312
283,692
271,085
256,565
240,281
222,425
203,249
183,027
162,003
140,421
118,51
96,479
74,544
52,939
31,893
11,673
-7,454
-25,28
-41,639
-56,42
-69,579
-81,105
-91,038
-99,46
-106,462
-112,139
-116,592
-119,906
-122,186
-123,567
-124,209
-124,313
-124,089
-123,7
-123,279
-122,926
-122,71
-122,684
-122,872
-123,262
-123,825
-124,535
-125,365
-126,305
-127,33
-128,39
-129,416
-130,313
-130,996
-131,406
-131,505
-131,268
-130,683
-129,745
-128,467
-126,886
-125,042
-122,973
-120,713
-118,284
-115,716
-113,05
-110,335
-107,625
-104,965
-102,385
-99,913
-97,566
-95,361
-93,309
-91,41
-89,656
-88,038
-86,55
-85,189
-83,954
-82,84
-81,841
-80,946
-80,146
-79,435
-78,806
-78,253
-77,768
-77,347
-76,983
-76,674
-76,418
-76,211
-76,049
-75,925
-75,833
-75,768
-75,723
-75,694
-75,674
-75,659
-75,643
-75,623
-75,597
-75,56
-75,512
-75,448
-75,368
-75,27
-75,153
-75,016
-74,858
-74,68
-74,482
-74,263
-74,023
-73,762
-73,48
-73,177
-72,854
-72,509
-72,144
-71,758
-71,353
-70,929
-70,486
-70,026
-69,549
-69,055
-68,545
-68,02
-67,48
-66,926
-66,358
-65,777
-65,182
-64,575
-63,954
-63,32
-62,674
-62,013
-61,338
-60,649
-59,945
-59,226
-58,491
-57,741
-56,976
-56,196
-55,4
-54,591
-53,768
-52,931
-52,082
-51,222
-50,351
-49,47
-48,581
-47,684
-46,781
-45,874
-44,964
-44,053
-43,142
-42,233
-41,327
-40,426
-39,531
-38,645
-37,769
-36,906
-36,055
-35,221
-34,405
-33,609
-32,835
-32,085
-31,361
-30,664
-29,997
-29,361
-28,757
-28,186
-27,65
-27,15
-26,685
-26,257
-25,866
-25,512
-25,195
-24,915
-24,671
-24,462
-24,287
-24,146
-24,038
-23,961
-23,914
-23,896
-23,905
-23,94
-24
-24,082
-24,186
-24,309
-24,449
-24,603
-24,771
-24,95
-25,137
-25,33
-25,526
-25,724
-25,921
-26,114
-26,302
-26,483
-26,655
-26,816
-26,966
-27,102
-27,225
-27,333
-27,426
-27,503
-27,564
-27,611
-27,642
-27,658
-27,66
-27,649
-27,625
-27,589
-27,541
-27,483
-27,415
-27,339
-27,254
-27,163
-27,068
-26,969
-26,869
-26,771
-26,677
-26,59
-26,513
-26,448
-26,398
-26,365
-26,351
-26,359
-26,39
-26,448
-26,534
-26,65
-26,798
-26,979
-27,196
-27,449
-27,738
-28,064
-28,426
-28,825
-29,259
-29,729
-30,235
-30,777
-31,354
-31,966
-32,613
-33,292
-34,001
-34,738
-35,499
-36,278
-37,07
-37,869
-38,669
-39,464
-40,249
-41,018
-41,767
-42,49
-43,182
-43,838
-44,451
-45,014
-45,518
-45,952
-46,306
-46,572
-46,742
-46,809
-46,766
-46,609
-46,332
-45,935
-45,414
-44,764
-43,979
-43,043
-41,951
-40,703
-39,306
-37,774
-36,131
-34,397
-32,598
-30,768
-28,932
-27,108
-25,308
-23,523
-21,744
-19,975
-18,227
-16,525
-14,894
-13,339
-11,861
-10,459
-9,112
-7,801
-6,501
-5,158
-3,736
-2,227
-0,644
0,961
2,512
3,952
5,24
6,343
7,239
7,89
8,259
8,325
8,066
7,469
6,506
5,107
3,209
0,799
-2,093
-5,377
-8,922
-12,607
-16,342
-20,007
-23,451
-26,581
-29,387
-31,973
-34,563
-37,345
-40,377
-43,727
-47,545
-51,875
-56,612
-61,397
-65,592
-68,747
-70,708
-71,368
-70,529
-67,981
-63,765
-58,448
-53,082
-48,511
-45,176
-43,356
-43,559
-46,728
-53,59
-64,22
-78,022
-94,143
-111,888
-130,543
-148,618
-163,457
-172,031
-171,328
-158,678
-131,949
-89,021
-28,005
51,634
148,578
260,25
382,833
511,59
641,624
766,01
875,768
963,319
1022,784
1053,115
1059,486
1045,472
1011,294
951,407
853,189
708,788
520,132
300,421
75,796
-126,442
-286,672
-393,584
-447,779
-457
-427,269
-367,121
-287,792
-200,416
-122,209
-67,73
-40,248
-36,976
-46,261
-54,173
-55,824
-51,435
-45,26
-43,599
-47,775
-55,514
-63,8
-69,17
-69,999
-66,732
-60,318
-51,797
-42,075
-31,961
-22,188
-13,546
-6,818
-2,245
0,264
0,962
0,298
-1,291
-3,427
-5,747
-7,941
-9,872
-11,502
-12,829
-13,871
-14,589
-14,921
-14,809
-14,228
-13,176
-11,644
-9,669
-7,316
-4,667
-1,837
1,116
4,202
7,43
10,814
14,367
18,06
21,857
25,73
29,609
33,43
37,155
40,754
44,232
47,625
50,971
54,321
57,717
61,171
64,697
68,305
72,001
75,802
79,731
83,809
88,082
92,604
97,417
102,553
108,026
113,834
119,968
126,408
133,125
140,084
147,242
154,563
162,015
169,574
177,221
184,923
192,646
200,356
208,014
215,592
223,081
230,475
237,774
245,002
252,184
259,362
266,603
273,939
281,387
288,953
296,609
304,34
312,125
319,913
327,653
335,282
342,712
349,856
356,631
362,893
368,501
373,299
377,097
379,754
381,154
381,19
379,795
376,912
372,496
366,556
359,13
350,249
339,976
328,368
315,476
301,438
286,412
270,564
254,103
237,212
220,056
202,829
185,711
168,853
152,396
136,43
121,009
106,214
92,12
78,804
66,364
54,823
44,17
34,401
25,477
17,354
9,986
3,28
-2,883
-8,58
-13,875
-18,805
-23,373
-27,616
-31,583
-35,321
-38,896
-42,34
-45,665
-48,891
-52,033
-55,087
-58,038
-60,837
-63,404
-65,696
-67,69
-69,373
-70,761
-71,854
-72,641
-73,127
-73,313
-73,205
-72,819
-72,162
-71,239
-70,074
-68,695
-67,148
-65,495
-63,783
-62,045
-60,309
-58,595
-56,921
-55,307
-53,764
-52,295
-50,907
-49,607
-48,403
-47,305
-46,319
-45,444
-44,677
-44,011
-43,439
-42,958
-42,563
-42,25
-42,015
-41,855
-41,768
-41,756
-41,817
-41,947
-42,142
-42,396
-42,704
-43,059
-43,456
-43,887
-44,347
-44,83
-45,331
-45,846
-46,372
-46,904
-47,44
-47,977
-48,512
-49,042
-49,567
-50,085
-50,594
-51,094
-51,584
-52,066
-52,538
-53,001
-53,457
-53,904
-54,346
-54,782
-55,213
-55,64
-56,065
-56,489
-56,914
-57,342
-57,774
-58,213
-58,66
-59,119
-59,591
-60,077
-60,579
-61,097
-61,633
-62,187
-62,758
-63,347
-63,954
-64,577
-65,216
-65,869
-66,537
-67,217
-67,908
-68,608
-69,316
-70,029
-70,745
-71,462
-72,178
-72,89
-73,597
-74,295
-74,982
-75,654
-76,31
-76,945
-77,558
-78,145
-78,703
-79,23
-79,722
-80,179
-80,596
-80,973
-81,307
-81,598
-81,844
-82,043
-82,196
-82,302
-82,36
-82,371
-82,335
-82,252
-82,122
-81,947
-81,727
-81,464
-81,159
-80,813
-80,428
-80,005
-79,548
-79,057
-78,536
-77,986
-77,411
-76,812
-76,193
-75,555
-74,903
-74,238
-73,563
-72,88
-72,192
-71,501
-70,808
-70,115
-69,424
-68,735
-68,05
-67,369
-66,693
-66,022
-65,356
-64,694
-64,038
-63,386
-62,737
-62,092
-61,449
-60,807
-60,166
-59,523
-58,878
-58,228
-57,573
-56,91
-56,238
-55,555
-54,859
-54,149
-53,422
-52,677
-51,911
-51,124
-50,314
-49,479
-48,618
-47,731
-46,818
-45,878
-44,913
-43,923
-42,909
-41,873
-40,817
-39,742
-38,651
-37,544
-36,424
-35,294
-34,156
-33,014
-31,871
-30,731
-29,597
-28,473
-27,364
-26,272
-25,202
-24,157
-23,141
-22,157
-21,21
-20,304
-19,441
-18,627
-17,865
-17,158
-16,509
-15,919
-15,39
-14,921
-14,511
-14,16
-13,864
-13,62
-13,425
-13,277
-13,174
-13,112
-13,09
-13,103
-13,148
-13,222
-13,316
-13,424
-13,533
-13,634
-13,715
-13,768
-13,783
-13,753
-13,669
-13,523
-13,311
-13,027
-12,663
-12,206
-11,639
-10,947
-10,128
-9,184
-8,122
-6,962
-5,717
-4,404
-3,051
-1,678
-0,296
1,092
2,5
3,943
5,421
6,924
8,428
9,908
11,362
12,791
14,2
15,612
17,045
18,521
20,092
21,783
23,592
25,496
27,436
29,335
31,149
32,842
34,389
35,771
36,951
37,884
38,539
38,867
38,82
38,354
37,409
35,948
33,986
31,556
28,723
25,592
22,254
18,79
15,301
11,873
8,578
5,529
2,853
0,604
-1,226
-2,729
-4,114
-5,544
-7,109
-8,99
-11,44
-14,528
-18,139
-21,886
-25,105
-27,353
-28,499
-28,327
-26,506
-22,99
-18,032
-12,349
-7,124
-3,149
-0,703
-0,149
-2,162
-7,341
-15,883
-27,302
-40,518
-54,717
-69,482
-84,157
-96,329
-102,028
-98,093
-82,796
-57,675
-26,039
12,291
61,416
129,333
223,733
345,759
489,028
639,158
779,934
900,29
994,189
1063,927
1116,245
1151,311
1165,816
1150,783
1091,088
982,129
825,737
629,384
412,147
189,322
-22,584
-204,451
-345,615
-435,614
-471,984
-462,076
-412,207
-334,313
-240,456
-140,748
-50,999
16,164
54
59,941
41,753
12,211
-18,52
-40,719
-50,313
-50,006
-43,056
-35,331
-31,358
-30,927
-32,444
-32,272
-27,736
-19,322
-8,827
1,009
8,187
12,357
13,77
12,922
10,311
6,275
1,288
-3,975
-8,94
-13,295
-16,896
-19,701
-21,704
-22,836
-23,067
-22,46
-21,082
-18,999
-16,263
-12,899
-8,979
-4,631
-0,006
4,72
9,42
14,027
18,483
22,747
26,783
30,54
34,003
37,19
40,111
42,781
45,214
47,416
49,42
51,284
53,07
54,85
56,68
58,595
60,631
62,821
65,194
67,779
70,594
73,641
76,933
80,49
84,333
88,488
92,968
97,768
102,884
108,306
114,02
120,008
126,241
132,677
139,28
146,025
152,887
159,85
166,886
173,95
181,006
188,017
194,953
201,803
208,556
215,202
221,756
228,254
234,739
241,276
247,9
254,611
261,409
268,283
275,225
282,236
289,293
296,352
303,369
310,291
317,045
323,55
329,667
335,203
339,969
343,767
346,435
347,87
347,957
346,585
343,674
339,156
332,998
325,21
315,784
304,702
291,992
277,719
262,03
245,162
227,342
208,794
189,737
170,356
150,863
131,495
112,439
93,84
75,829
58,503
41,995
26,482
12,079
-1,146
-13,188
-24,127
-34,025
-42,934
-50,937
-58,12
-64,602
-70,537
-76,024
-81,114
-85,86
-90,306
-94,528
-98,645
-102,734
-106,829
-110,946
-115,059
-119,157
-123,246
-127,293
-131,245
-135,033
-138,57
-141,809
-144,743
-147,362
-149,656
-151,611
-153,189
-154,383
-155,209
-155,682
-155,821
-155,644
-155,161
-154,404
-153,422
-152,268
-150,999
-149,656
-148,262
-146,842
-145,419
-144,014
-142,646
-141,328
-140,058
-138,841
-137,687
-136,603
-135,596
-134,668
-133,814
-133,029
-132,308
-131,646
-131,04
-130,489
-129,986
-129,531
-129,122
-128,76
-128,445
-128,176
-127,951
-127,767
-127,619
-127,504
-127,419
-127,358
-127,318
-127,294
-127,284
-127,284
-127,292
-127,306
-127,324
-127,344
-127,364
-127,383
-127,4
-127,414
-127,424
-127,43
-127,433
-127,432
-127,429
-127,425
-127,419
-127,414
-127,411
-127,41
-127,412
-127,42
-127,433
-127,453
-127,483
-127,522
-127,573
-127,637
-127,715
-127,808
-127,919
-128,048
-128,196
-128,364
-128,552
-128,761
-128,992
-129,245
-129,52
-129,818
-130,137
-130,479
-130,844
-131,232
-131,643
-132,076
-132,532
-133,01
-133,511
-134,033
-134,577
-135,142
-135,728
-136,333
-136,958
-137,601
-138,263
-138,941
-139,636
-140,346
-141,072
-141,812
-142,566
-143,333
-144,113
-144,906
-145,71
-146,526
-147,352
-148,19
-149,037
-149,893
-150,758
-151,63
-152,51
-153,395
-154,285
-155,178
-156,074
-156,97
-157,867
-158,762
-159,655
-160,544
-161,428
-162,307
-163,178
-164,042
-164,896
-165,741
-166,574
-167,396
-168,204
-168,997
-169,775
-170,536
-171,278
-172
-172,701
-173,38
-174,034
-174,662
-175,264
-175,838
-176,384
-176,9
-177,387
-177,843
-178,269
-178,665
-179,03
-179,366
-179,673
-179,95
-180,201
-180,424
-180,622
-180,795
-180,945
-181,074
-181,181
-181,27
-181,342
-181,399
-181,443
-181,476
-181,501
-181,521
-181,54
-181,56
-181,584
-181,617
-181,662
-181,723
-181,803
-181,905
-182,035
-182,194
-182,387
-182,616
-182,886
-183,198
-183,555
-183,959
-184,412
-184,915
-185,469
-186,076
-186,736
-187,448
-188,213
-189,032
-189,903
-190,825
-191,796
-192,815
-193,879
-194,984
-196,126
-197,301
-198,502
-199,724
-200,96
-202,203
-203,446
-204,679
-205,895
-207,083
-208,234
-209,338
-210,383
-211,359
-212,255
-213,06
-213,763
-214,355
-214,824
-215,161
-215,356
-215,398
-215,279
-214,989
-214,519
-213,861
-213,008
-211,955
-210,694
-209,223
-207,539
-205,639
-203,526
-201,204
-198,679
-195,957
-193,049
-189,964
-186,716
-183,32
-179,786
-176,129
-172,361
-168,493
-164,541
-160,523
-156,453
-152,349
-148,225
-144,091
-139,958
-135,836
-131,724
-127,625
-123,538
-119,468
-115,429
-111,44
-107,517
-103,68
-99,94
-96,303
-92,77
-89,324
-85,939
-82,592
-79,262
-75,946
-72,642
-69,334
-66,002
-62,61
-59,109
-55,465
-51,611
-47,443
-42,93
-38,115
-33,131
-28,236
-23,638
-19,438
-15,788
-12,907
-10,892
-9,684
-8,944
-8,075
-6,718
-4,823
-2,355
0,896
5,213
10,655
16,777
22,73
27,926
32,243
35,682
37,763
37,511
34,265
27,828
18,473
6,608
-7,733
-23,488
-37,666
-46,808
-48,45
-43,186
-33,522
-19,088
5,243
49,714
124,278
231,518
365,714
513,757
660,794
795,251
910,497
1004,363
1077,015
1131,111
1166,536
1179,91
1165,997
1113,552
1014,614
867,582
675,29
453,284
222,447
4,839
-176,02
-307,407
-385,838
-415,981
-409,833
-375,73
-320,712
-251,171
-173,825
-102,083
-48,115
-18,012
-11,177
-17,307
-24,8
-27,807
-25,152
-20,886
-20,14
-23,594
-29,473
-34,872
-36,571
-33,937
-27,952
-19,656
-10,332
-0,983
7,74
15,016
19,99
22,356
22,216
19,866
15,806
10,565
4,605
-1,554
-7,335
-12,391
-16,54
-19,654
-21,736
-22,798
-22,826
-21,869
-20,011
-17,314
-13,859
-9,744
-5,051
0,095
5,545
11,172
16,831
22,411
27,837
33,035
37,958
42,585
46,905
50,921
54,649
58,107
61,317
64,315
67,134
69,816
72,411
74,972
77,56
80,226
83,007
85,939
89,049
92,358
95,886
99,645
103,639
107,879
112,376
117,149
122,211
127,565
133,208
139,131
145,316
151,745
158,39
165,209
172,164
179,218
186,333
193,494
200,686
207,888
215,08
222,235
229,338
236,389
243,397
250,361
257,284
264,17
271,029
277,907
284,835
291,831
298,906
306,031
313,162
320,254
327,25
334,079
340,659
346,874
352,589
357,704
362,123
365,766
368,561
370,394
371,159
370,773
369,16
366,292
362,165
356,776
350,141
342,301
333,314
323,291
312,378
300,68
288,284
275,251
261,615
247,459
232,888
218
202,898
187,664
172,378
157,137
142,05
127,22
112,727
98,601
84,834
71,452
58,51
46,097
34,334
23,301
13,041
3,587
-5,041
-12,821
-19,758
-25,892
-31,306
-36,096
-40,336
-44,059
-47,275
-50,005
-52,3
-54,238
-55,919
-57,413
-58,769
-60,03
-61,236
-62,426
-63,615
-64,785
-65,881
-66,833
-67,597
-68,157
-68,514
-68,667
-68,611
-68,327
-67,799
-67,031
-66,03
-64,8
-63,346
-61,667
-59,779
-57,714
-55,521
-53,253
-50,952
-48,643
-46,349
-44,087
-41,872
-39,719
-37,637
-35,621
-33,673
-31,796
-29,996
-28,279
-26,65
-25,104
-23,636
-22,239
-20,91
-19,646
-18,445
-17,303
-16,22
-15,195
-14,23
-13,33
-12,496
-11,729
-11,028
-10,393
-9,821
-9,313
-8,867
-8,481
-8,153
-7,882
-7,667
-7,508
-7,404
-7,354
-7,357
-7,413
-7,521
-7,68
-7,888
-8,144
-8,446
-8,793
-9,183
-9,614
-10,084
-10,591
-11,132
-11,707
-12,312
-12,944
-13,601
-14,28
-14,978
-15,692
-16,418
-17,155
-17,898
-18,645
-19,393
-20,14
-20,883
-21,618
-22,345
-23,059
-23,759
-24,442
-25,107
-25,751
-26,373
-26,972
-27,547
-28,097
-28,621
-29,119
-29,591
-30,036
-30,455
-30,847
-31,213
-31,553
-31,867
-32,155
-32,418
-32,656
-32,869
-33,058
-33,222
-33,363
-33,482
-33,577
-33,651
-33,703
-33,735
-33,745
-33,736
-33,706
-33,657
-33,587
-33,498
-33,389
-33,26
-33,111
-32,941
-32,752
-32,542
-32,312
-32,062
-31,793
-31,505
-31,198
-30,873
-30,531
-30,173
-29,801
-29,415
-29,019
-28,614
-28,203
-27,789
-27,373
-26,96
-26,552
-26,151
-25,76
-25,384
-25,025
-24,687
-24,373
-24,089
-23,838
-23,624
-23,454
-23,329
-23,256
-23,238
-23,279
-23,382
-23,55
-23,786
-24,093
-24,474
-24,931
-25,467
-26,082
-26,779
-27,558
-28,418
-29,36
-30,382
-31,483
-32,659
-33,91
-35,233
-36,625
-38,082
-39,602
-41,181
-42,813
-44,494
-46,216
-47,974
-49,758
-51,56
-53,37
-55,178
-56,975
-58,752
-60,498
-62,204
-63,864
-65,469
-67,011
-68,483
-69,877
-71,183
-72,392
-73,494
-74,478
-75,332
-76,048
-76,617
-77,032
-77,287
-77,379
-77,306
-77,066
-76,656
-76,069
-75,299
-74,34
-73,197
-71,878
-70,398
-68,78
-67,055
-65,259
-63,43
-61,6
-59,792
-58,021
-56,286
-54,588
-52,924
-51,299
-49,733
-48,24
-46,833
-45,517
-44,291
-43,137
-42,02
-40,89
-39,688
-38,372
-36,92
-35,347
-33,689
-31,998
-30,346
-28,793
-27,374
-26,12
-25,049
-24,161
-23,456
-22,955
-22,69
-22,727
-23,161
-24,045
-25,4
-27,194
-29,352
-31,78
-34,359
-36,948
-39,4
-41,633
-43,672
-45,658
-47,83
-50,387
-53,436
-57,072
-61,445
-66,59
-72,33
-78,27
-83,761
-88,188
-91,243
-92,647
-91,929
-88,787
-83,32
-75,985
-67,763
-59,799
-52,823
-47,581
-45,31
-47,153
-53,641
-64,833
-80,19
-98,495
-118,585
-139,122
-156,685
-167,427
-169,193
-159,069
-136,323
-101,206
-49,322
21,838
114,062
228,764
359,422
498,94
639,249
769,386
883,408
975,437
1042,301
1086,667
1107,823
1105,151
1073,76
1001,593
882,745
715,084
505,816
275,874
46,77
-157,916
-319,499
-430,655
-489,358
-501,784
-475,676
-418,211
-340,008
-251,096
-166,543
-102,043
-63,682
-51,179
-54,46
-58,412
-56,195
-46,894
-34,6
-26,828
-25,74
-29,516
-35,348
-39,528
-40,47
-38,368
-33,778
-27,654
-20,79
-13,801
-7,311
-1,829
2,176
4,256
4,315
2,569
-0,617
-4,723
-9,257
-13,864
-18,185
-21,831
-24,545
-26,199
-26,749
-26,267
-24,837
-22,504
-19,349
-15,482
-11,004
-6,049
-0,753
4,761
10,35
15,895
21,311
26,516
31,441
36,043
40,292
44,184
47,743
50,983
53,922
56,583
58,997
61,208
63,272
65,244
67,188
69,151
71,177
73,305
75,571
78,002
80,623
83,448
86,482
89,74
93,237
96,99
101,022
105,341
109,948
114,841
120,009
125,438
131,109
136,993
143,05
149,25
155,562
161,961
168,432
174,948
181,479
188
194,475
200,879
207,207
213,449
219,606
225,698
231,745
237,782
243,869
250,035
256,298
262,661
269,102
275,598
282,121
288,623
295,051
301,345
307,416
313,176
318,536
323,367
327,538
330,907
333,303
334,585
334,643
333,373
330,709
326,612
321,055
314,047
305,629
295,846
284,764
272,461
259,009
244,522
229,134
212,992
196,278
179,171
161,835
144,447
127,18
110,167
93,527
77,353
61,695
46,614
32,168
18,408
5,396
-6,818
-18,216
-28,786
-38,539
-47,512
-55,751
-63,326
-70,338
-76,856
-82,93
-88,6
-93,874
-98,767
-103,311
-107,532
-111,464
-115,159
-118,649
-121,964
-125,135
-128,165
-131,042
-133,738
-136,191
-138,358
-140,222
-141,769
-143,007
-143,95
-144,602
-144,975
-145,085
-144,934
-144,529
-143,878
-142,984
-141,866
-140,553
-139,082
-137,507
-135,877
-134,227
-132,589
-130,986
-129,434
-127,95
-126,546
-125,223
-123,988
-122,849
-121,814
-120,891
-120,086
-119,397
-118,822
-118,355
-117,986
-117,709
-117,517
-117,403
-117,361
-117,386
-117,475
-117,624
-117,831
-118,092
-118,4
-118,749
-119,131
-119,539
-119,967
-120,406
-120,849
-121,29
-121,722
-122,14
-122,539
-122,914
-123,26
-123,574
-123,852
-124,089
-124,285
-124,436
-124,54
-124,597
-124,606
-124,566
-124,477
-124,34
-124,156
-123,925
-123,648
-123,327
-122,963
-122,557
-122,11
-121,625
-121,103
-120,545
-119,954
-119,333
-118,683
-118,006
-117,305
-116,582
-115,84
-115,08
-114,303
-113,512
-112,707
-111,892
-111,066
-110,231
-109,389
-108,54
-107,685
-106,827
-105,964
-105,099
-104,233
-103,365
-102,496
-101,628
-100,761
-99,896
-99,032
-98,172
-97,315
-96,463
-95,615
-94,774
-93,939
-93,112
-92,293
-91,483
-90,683
-89,894
-89,116
-88,351
-87,6
-86,863
-86,142
-85,438
-84,752
-84,085
-83,438
-82,812
-82,209
-81,629
-81,073
-80,542
-80,037
-79,558
-79,106
-78,681
-78,284
-77,916
-77,576
-77,264
-76,981
-76,727
-76,501
-76,303
-76,132
-75,988
-75,871
-75,78
-75,715
-75,675
-75,66
-75,67
-75,702
-75,758
-75,835
-75,933
-76,052
-76,189
-76,346
-76,52
-76,711
-76,92
-77,145
-77,387
-77,645
-77,92
-78,212
-78,521
-78,848
-79,194
-79,56
-79,946
-80,356
-80,79
-81,25
-81,738
-82,257
-82,808
-83,392
-84,012
-84,668
-85,363
-86,097
-86,871
-87,687
-88,546
-89,447
-90,392
-91,381
-92,413
-93,488
-94,605
-95,761
-96,955
-98,184
-99,444
-100,731
-102,04
-103,368
-104,707
-106,052
-107,396
-108,73
-110,046
-111,336
-112,588
-113,792
-114,939
-116,017
-117,015
-117,923
-118,731
-119,427
-120,003
-120,447
-120,75
-120,903
-120,897
-120,723
-120,375
-119,844
-119,128
-118,222
-117,123
-115,832
-114,349
-112,677
-110,822
-108,792
-106,595
-104,242
-101,749
-99,128
-96,399
-93,577
-90,679
-87,725
-84,733
-81,721
-78,71
-75,72
-72,77
-69,882
-67,074
-64,365
-61,768
-59,29
-56,939
-54,72
-52,642
-50,718
-48,965
-47,394
-46,021
-44,856
-43,907
-43,176
-42,652
-42,3
-42,089
-41,989
-41,977
-42,056
-42,213
-42,421
-42,649
-42,844
-42,948
-42,928
-42,713
-42,197
-41,36
-40,256
-39,023
-37,936
-37,213
-36,959
-37,356
-38,63
-40,801
-43,739
-47,082
-50,212
-52,742
-54,556
-55,416
-54,953
-53,043
-49,818
-45,821
-42,003
-38,963
-36,899
-36,198
-37,617
-41,865
-49,288
-59,559
-71,798
-85,319
-99,647
-113,927
-125,574
-130,619
-125,858
-109,45
-82,668
-48,625
-7,323
44,945
115,367
211,045
332,846
473,104
616,684
748,391
857,621
941,369
1005,813
1055,824
1091,055
1106,008
1085,428
1015,558
891,613
715,26
501,71
273,597
52,893
-137,925
-284,176
-379,71
-426,386
-432,512
-406,507
-359,177
-298,303
-232,117
-173,619
-128,786
-100,448
-86,191
-74,767
-60,644
-43,085
-24,183
-10,912
-5,905
-7,577
-13,71
-20,517
-25,842
-29,274
-30,235
-28,854
-25,656
-21,081
-15,839
-10,674
-6,129
-2,799
-1,363
-2,103
-4,883
-9,379
-15,059
-21,39
-28,005
-34,51
-40,445
-45,515
-49,567
-52,541
-54,513
-55,568
-55,74
-55,109
-53,778
-51,842
-49,429
-46,67
-43,686
-40,626
-37,614
-34,737
-32,081
-29,712
-27,675
-26,002
-24,695
-23,73
-23,089
-22,755
-22,7
-22,897
-23,298
-23,845
-24,478
-25,131
-25,753
-26,304
-26,743
-27,037
-27,158
-27,084
-26,798
-26,297
-25,569
-24,595
-23,364
-21,86
-20,078
-18,02
-15,686
-13,074
-10,181
-7,001
-3,534
0,21
4,22
8,487
12,99
17,706
22,592
27,592
32,657
37,753
42,853
47,942
53,001
58,007
62,942
67,79
72,538
77,181
81,705
86,084
90,319
94,421
98,432
102,416
106,408
110,406
114,391
118,33
122,179
125,889
129,384
132,57
135,364
137,697
139,523
140,807
141,486
141,481
140,688
138,99
136,313
132,627
127,923
122,207
115,51
107,895
99,47
90,377
80,74
70,647
60,168
49,384
38,402
27,341
16,336
5,516
-5,019
-15,184
-24,906
-34,116
-42,767
-50,853
-58,404
-65,469
-72,077
-78,225
-83,889
-89,088
-93,851
-98,205
-102,186
-105,804
-109,067
-111,996
-114,614
-116,941
-118,985
-120,735
-122,161
-123,246
-123,983
-124,386
-124,48
-124,257
-123,705
-122,831
-121,639
-120,155
-118,408
-116,404
-114,151
-111,67
-108,983
-106,121
-103,119
-99,997
-96,773
-93,464
-90,084
-86,662
-83,23
-79,807
-76,412
-73,059
-69,759
-66,533
-63,4
-60,368
-57,444
-54,636
-51,947
-49,388
-46,97
-44,696
-42,572
-40,596
-38,77
-37,092
-35,563
-34,18
-32,94
-31,839
-30,871
-30,035
-29,329
-28,748
-28,29
-27,949
-27,72
-27,599
-27,582
-27,662
-27,835
-28,095
-28,437
-28,858
-29,354
-29,919
-30,551
-31,245
-31,997
-32,803
-33,661
-34,565
-35,512
-36,5
-37,524
-38,583
-39,673
-40,791
-41,935
-43,101
-44,287
-45,489
-46,703
-47,928
-49,158
-50,391
-51,624
-52,854
-54,077
-55,291
-56,492
-57,677
-58,844
-59,989
-61,11
-62,204
-63,268
-64,3
-65,296
-66,255
-67,173
-68,048
-68,877
-69,658
-70,388
-71,065
-71,686
-72,25
-72,754
-73,197
-73,578
-73,896
-74,15
-74,34
-74,465
-74,525
-74,519
-74,446
-74,307
-74,1
-73,824
-73,478
-73,063
-72,577
-72,019
-71,388
-70,682
-69,9
-69,04
-68,101
-67,081
-65,979
-64,793
-63,523
-62,168
-60,729
-59,205
-57,597
-55,905
-54,129
-52,271
-50,33
-48,309
-46,208
-44,031
-41,781
-39,462
-37,079
-34,638
-32,148
-29,617
-27,058
-24,48
-21,899
-19,33
-16,787
-14,287
-11,845
-9,474
-7,19
-5,006
-2,936
-0,995
0,807
2,458
3,944
5,254
6,381
7,318
8,07
8,64
9,033
9,248
9,275
9,105
8,732
8,152
7,356
6,346
5,122
3,701
2,128
0,447
-1,302
-3,087
-4,909
-6,75
-8,578
-10,352
-11,999
-13,446
-14,65
-15,543
-16,024
-16,087
-15,78
-15,242
-14,77
-14,597
-14,878
-15,847
-17,669
-20,284
-23,523
-27,021
-30,224
-32,835
-34,643
-35,208
-34,27
-31,938
-28,533
-24,747
-21,425
-18,961
-17,718
-18,588
-22,417
-29,534
-39,941
-53,193
-68,379
-84,803
-101,765
-116,496
-125,682
-127,762
-120,285
-102,911
-76,193
-35,532
22,088
99,171
197,917
312,616
437,092
564,119
683,714
791,184
881,757
952,957
1007,81
1044,114
1058,573
1045,569
993,08
897,495
760,563
588,05
396,591
200,403
14,019
-146,068
-271,81
-356,625
-399,466
-406,436
-382,96
-338,683
-284,205
-229,415
-183,801
-150,288
-126,475
-105,813
-82,306
-55,357
-28,043
-6,053
6,769
10,777
8,138
1,974
-4,978
-11,414
-16,447
-19,249
-19,635
-17,838
-14,227
-9,435
-4,264
0,621
4,477
6,53
6,597
4,88
1,731
-2,287
-6,714
-11,225
-15,413
-18,863
-21,326
-22,679
-22,927
-22,189
-20,548
-18,063
-14,816
-10,902
-6,456
-1,623
3,452
8,627
13,804
18,911
23,881
28,661
33,199
37,458
41,439
45,162
48,642
51,889
54,914
57,728
60,376
62,914
65,402
67,908
70,48
73,157
75,978
78,979
82,191
85,638
89,329
93,264
97,451
101,908
106,651
111,696
117,04
122,672
128,581
134,748
141,156
147,777
154,568
161,489
168,505
175,584
182,714
189,877
197,053
204,215
211,333
218,387
225,378
232,313
239,188
246,007
252,773
259,508
266,26
273,064
279,932
286,864
293,825
300,778
307,688
314,512
321,193
327,663
333,826
339,585
344,857
349,549
353,562
356,777
359,038
360,216
360,213
358,95
356,389
352,508
347,293
340,763
332,957
323,932
313,762
302,521
290,28
277,14
263,218
248,658
233,647
218,361
202,965
187,629
172,493
157,678
143,291
129,402
116,069
103,35
91,305
80
69,495
59,813
50,961
42,928
35,664
29,113
23,199
17,814
12,876
8,319
4,093
0,178
-3,45
-6,831
-10,006
-13,031
-15,951
-18,792
-21,577
-24,324
-27,03
-29,68
-32,234
-34,623
-36,796
-38,729
-40,405
-41,832
-43,012
-43,941
-44,617
-45,042
-45,217
-45,154
-44,859
-44,338
-43,607
-42,692
-41,634
-40,49
-39,302
-38,103
-36,919
-35,767
-34,663
-33,627
-32,667
-31,787
-30,993
-30,291
-29,687
-29,191
-28,807
-28,534
-28,367
-28,3
-28,326
-28,439
-28,636
-28,911
-29,262
-29,683
-30,174
-30,735
-31,365
-32,061
-32,819
-33,633
-34,5
-35,413
-36,369
-37,362
-38,385
-39,435
-40,508
-41,599
-42,706
-43,823
-44,949
-46,079
-47,211
-48,342
-49,471
-50,596
-51,714
-52,827
-53,932
-55,031
-56,124
-57,212
-58,295
-59,376
-60,455
-61,533
-62,614
-63,697
-64,785
-65,879
-66,98
-68,092
-69,216
-70,354
-71,507
-72,677
-73,866
-75,075
-76,304
-77,554
-78,826
-80,118
-81,431
-82,763
-84,113
-85,481
-86,865
-88,261
-89,668
-91,083
-92,502
-93,921
-95,334
-96,737
-98,123
-99,487
-100,823
-102,123
-103,381
-104,589
-105,74
-106,827
-107,841
-108,774
-109,619
-110,368
-111,012
-111,543
-111,956
-112,243
-112,398
-112,416
-112,292
-112,021
-111,601
-111,028
-110,299
-109,412
-108,366
-107,162
-105,802
-104,287
-102,624
-100,819
-98,882
-96,824
-94,656
-92,392
-90,045
-87,632
-85,171
-82,681
-80,179
-77,687
-75,225
-72,815
-70,482
-68,248
-66,133
-64,154
-62,331
-60,677
-59,211
-57,949
-56,899
-56,07
-55,466
-55,094
-54,965
-55,085
-55,455
-56,073
-56,938
-58,042
-59,376
-60,93
-62,673
-64,578
-66,609
-68,717
-70,872
-73,043
-75,2
-77,33
-79,398
-81,358
-83,176
-84,803
-86,191
-87,336
-88,205
-88,752
-89,052
-89,227
-89,493
-90,213
-91,666
-94,027
-97,523
-102,284
-108,232
-115,176
-122,566
-129,536
-135,393
-139,502
-141,239
-140,342
-136,835
-130,987
-123,738
-116,405
-110,174
-106,44
-106,518
-111,142
-120,62
-134,631
-152,036
-171,392
-190,776
-207,574
-218,179
-218,199
-204,927
-177,057
-135,069
-81,887
-16,623
64,155
162,825
282,85
419,664
560,255
692,877
804,984
890,929
956,284
1004,454
1035,796
1045,921
1019,089
941,724
809,29
623,858
401,774
166,298
-61,097
-258,904
-412,099
-513,407
-561,784
-562,06
-524,206
-462,647
-390,685
-322,951
-271,6
-238,807
-222,674
-215,029
-204,639
-188,288
-167,222
-146,158
-132,033
-126,547
-128,162
-134,721
-142,96
-151,115
-158,304
-163,161
-165,32
-164,94
-162,032
-156,749
-149,187
-139,628
-129,149
-119,364
-111,238
-105,093
-101,019
-98,97
-99,114
-101,552
-105,75
-110,721
-115,728
-120,331
-124,313
-127,596
-129,907
-130,987
-130,872
-129,806
-128,039
-125,743
-122,976
-119,726
-116,06
-112,066
-107,799
-103,283
-98,516
-93,533
-88,402
-83,219
-78,089
-73,082
-68,235
-63,566
-59,076
-54,747
-50,568
-46,512
-42,538
-38,617
-34,718
-30,81
-26,877
-22,897
-18,836
-14,657
-10,31
-5,749
-0,949
4,102
9,406
14,959
20,749
26,756
32,945
39,272
45,7
52,197
58,738
65,304
71,871
78,413
84,901
91,302
97,597
103,784
109,865
115,85
121,755
127,603
133,427
139,278
145,189
151,17
157,223
163,337
169,491
175,653
181,788
187,856
193,798
199,541
204,995
210,045
214,581
218,479
221,602
223,805
224,961
224,973
223,759
221,248
217,383
212,137
205,493
197,455
188,054
177,315
165,307
152,145
137,944
122,848
107,025
90,645
73,876
56,883
39,829
22,883
6,223
-10,011
-25,692
-40,703
-54,948
-68,306
-80,694
-92,087
-102,465
-111,836
-120,235
-127,689
-134,238
-139,955
-144,916
-149,219
-152,991
-156,321
-159,287
-161,97
-164,442
-166,8
-169,124
-171,451
-173,809
-176,212
-178,665
-181,183
-183,771
-186,401
-189,039
-191,637
-194,127
-196,472
-198,644
-200,615
-202,362
-203,857
-205,075
-206,018
-206,698
-207,126
-207,317
-207,278
-207,019
-206,568
-205,959
-205,225
-204,41
-203,541
-202,637
-201,719
-200,8
-199,892
-199,002
-198,13
-197,266
-196,404
-195,539
-194,667
-193,782
-192,876
-191,934
-190,946
-189,898
-188,779
-187,58
-186,291
-184,902
-183,409
-181,804
-180,085
-178,249
-176,293
-174,214
-172,009
-169,675
-167,21
-164,612
-161,88
-159,015
-156,017
-152,889
-149,634
-146,258
-142,766
-139,164
-135,46
-131,661
-127,776
-123,814
-119,786
-115,701
-111,57
-107,406
-103,218
-99,02
-94,822
-90,637
-86,476
-82,35
-78,27
-74,247
-70,29
-66,409
-62,613
-58,911
-55,31
-51,819
-48,443
-45,188
-42,059
-39,061
-36,197
-33,469
-30,877
-28,422
-26,103
-23,92
-21,869
-19,948
-18,154
-16,482
-14,927
-13,486
-12,153
-10,92
-9,783
-8,735
-7,768
-6,876
-6,052
-5,289
-4,579
-3,918
-3,296
-2,71
-2,151
-1,615
-1,095
-0,587
-0,085
0,414
0,915
1,421
1,935
2,458
2,993
3,54
4,1
4,673
5,259
5,857
6,467
7,088
7,718
8,355
8,999
9,646
10,295
10,944
11,589
12,23
12,862
13,485
14,096
14,693
15,274
15,837
16,38
16,903
17,403
17,879
18,332
18,759
19,161
19,539
19,892
20,221
20,528
20,815
21,082
21,332
21,567
21,788
21,999
22,2
22,395
22,586
22,774
22,963
23,155
23,351
23,554
23,765
23,987
24,222
24,469
24,732
25,009
25,303
25,615
25,944
26,291
26,656
27,038
27,439
27,855
28,288
28,735
29,194
29,663
30,142
30,626
31,114
31,604
32,093
32,578
33,058
33,529
33,99
34,438
34,871
35,287
35,684
36,06
36,414
36,745
37,053
37,335
37,593
37,825
38,033
38,215
38,373
38,507
38,617
38,706
38,774
38,823
38,855
38,872
38,877
38,872
38,86
38,844
38,826
38,809
38,796
38,789
38,791
38,805
38,832
38,874
38,933
39,011
39,109
39,226
39,365
39,524
39,704
39,903
40,121
40,356
40,605
40,867
41,139
41,419
41,703
41,987
42,268
42,541
42,801
43,044
43,264
43,456
43,613
43,731
43,804
43,826
43,792
43,698
43,538
43,308
43,004
42,623
42,161
41,615
40,983
40,263
39,455
38,559
37,574
36,501
35,344
34,104
32,785
31,39
29,925
28,395
26,806
25,164
23,478
21,756
20,007
18,241
16,469
14,701
12,95
11,227
9,542
7,908
6,336
4,837
3,422
2,102
0,887
-0,214
-1,19
-2,034
-2,738
-3,296
-3,703
-3,956
-4,052
-3,99
-3,769
-3,393
-2,867
-2,199
-1,397
-0,472
0,563
1,691
2,895
4,159
5,466
6,802
8,151
9,495
10,815
12,093
13,311
14,45
15,498
16,439
17,264
17,971
18,556
19,023
19,37
19,59
19,67
19,599
19,361
18,946
18,346
17,562
16,609
15,511
14,293
12,972
11,554
10,043
8,457
6,819
5,165
3,546
2,004
0,616
-0,491
-1,255
-1,693
-1,917
-2,173
-2,667
-3,495
-4,792
-6,753
-9,434
-12,71
-16,169
-19,074
-20,898
-21,466
-20,686
-18,427
-14,604
-9,364
-3,379
2,159
6,287
8,547
8,731
6,588
1,549
-6,879
-18,547
-32,669
-48,303
-64,616
-80,943
-96,307
-108,728
-115,656
-114,695
-103,594
-80,418
-43,609
8,587
77,391
162,36
261,853
373,367
493,276
617,647
741,196
856,231
955,382
1032,357
1085,394
1117,794
1131,199
1125,583
1094,079
1023,669
907,293
742,935
539,72
319,681
105,637
-78,789
-216,735
-304,82
-347,414
-356,174
-342,406
-310,582
-262,85
-200,445
-129,843
-65,031
-16,943
9,084
16,33
17,048
19,418
26,007
35,197
40,737
40,126
34,814
27,072
20,427
16,846
16,331
18,32
21,73
25,374
28,611
31,241
32,944
33,25
31,89
28,981
25,095
21,243
17,986
15,189
12,804
10,933
9,673
9,158
9,248
9,438
9,572
9,97
10,844
12,345
14,517
17,189
20,288
23,894
27,924
32,13
36,333
40,359
44,109
47,605
50,828
53,726
56,303
58,581
60,586
62,353
63,907
65,262
66,462
67,564
68,621
69,684
70,79
71,971
73,26
74,684
76,263
78,008
79,93
82,044
84,363
86,902
89,675
92,691
95,956
99,485
103,279
107,335
111,65
116,209
120,992
125,977
131,125
136,397
141,76
147,189
152,663
158,175
163,712
169,262
174,816
180,348
185,835
191,263
196,604
201,836
206,957
211,972
216,915
221,831
226,729
231,601
236,423
241,132
245,667
249,951
253,878
257,369
260,355
262,767
264,563
265,706
266,127
265,758
264,504
262,252
258,936
254,52
248,981
242,351
234,682
226,05
216,585
206,402
195,593
184,246
172,425
160,188
147,622
134,817
121,871
108,912
96,037
83,329
70,867
58,694
46,832
35,283
24,005
12,966
2,159
-8,419
-18,75
-28,809
-38,586
-48,069
-57,24
-66,104
-74,658
-82,898
-90,826
-98,433
-105,695
-112,587
-119,065
-125,09
-130,638
-135,695
-140,255
-144,323
-147,902
-151,003
-153,647
-155,851
-157,63
-159,001
-159,978
-160,578
-160,827
-160,748
-160,372
-159,729
-158,847
-157,753
-156,475
-155,037
-153,463
-151,774
-149,988
-148,124
-146,201
-144,239
-142,258
-140,277
-138,314
-136,386
-134,509
-132,698
-130,967
-129,327
-127,788
-126,357
-125,042
-123,848
-122,78
-121,841
-121,033
-120,356
-119,81
-119,394
-119,107
-118,944
-118,902
-118,976
-119,163
-119,456
-119,85
-120,339
-120,918
-121,58
-122,32
-123,132
-124,01
-124,948
-125,939
-126,978
-128,057
-129,171
-130,313
-131,477
-132,658
-133,85
-135,048
-136,249
-137,447
-138,64
-139,822
-140,992
-142,147
-143,284
-144,401
-145,495
-146,567
-147,613
-148,633
-149,627
-150,592
-151,528
-152,434
-153,309
-154,152
-154,962
-155,738
-156,478
-157,182
-157,847
-158,475
-159,062
-159,609
-160,114
-160,577
-160,997
-161,373
-161,705
-161,991
-162,233
-162,428
-162,577
-162,679
-162,734
-162,742
-162,702
-162,615
-162,48
-162,298
-162,068
-161,791
-161,467
-161,097
-160,681
-160,221
-159,718
-159,173
-158,59
-157,968
-157,311
-156,622
-155,902
-155,155
-154,382
-153,588
-152,774
-151,943
-151,098
-150,242
-149,376
-148,504
-147,628
-146,749
-145,871
-144,993
-144,119
-143,25
-142,386
-141,529
-140,68
-139,839
-139,008
-138,186
-137,374
-136,572
-135,779
-134,995
-134,218
-133,448
-132,683
-131,92
-131,158
-130,395
-129,628
-128,853
-128,07
-127,275
-126,464
-125,637
-124,789
-123,918
-123,022
-122,099
-121,145
-120,159
-119,14
-118,086
-116,996
-115,869
-114,705
-113,504
-112,266
-110,99
-109,679
-108,332
-106,95
-105,536
-104,091
-102,617
-101,116
-99,593
-98,05
-96,491
-94,92
-93,341
-91,758
-90,175
-88,597
-87,028
-85,473
-83,936
-82,422
-80,937
-79,486
-78,072
-76,702
-75,38
-74,109
-72,895
-71,74
-70,647
-69,62
-68,661
-67,772
-66,956
-66,214
-65,547
-64,956
-64,442
-64,005
-63,645
-63,361
-63,152
-63,015
-62,95
-62,953
-63,022
-63,156
-63,351
-63,604
-63,913
-64,273
-64,681
-65,132
-65,62
-66,139
-66,681
-67,239
-67,806
-68,373
-68,934
-69,482
-70,01
-70,512
-70,982
-71,416
-71,809
-72,155
-72,449
-72,683
-72,85
-72,944
-72,956
-72,879
-72,706
-72,428
-72,038
-71,533
-70,908
-70,159
-69,277
-68,252
-67,077
-65,755
-64,291
-62,696
-60,987
-59,179
-57,299
-55,386
-53,478
-51,61
-49,813
-48,099
-46,478
-44,964
-43,571
-42,315
-41,2
-40,203
-39,298
-38,464
-37,673
-36,898
-36,099
-35,193
-34,11
-32,796
-31,209
-29,348
-27,232
-24,87
-22,281
-19,508
-16,611
-13,69
-10,854
-8,176
-5,711
-3,509
-1,633
-0,198
0,684
0,926
0,479
-0,651
-2,426
-4,809
-7,743
-11,144
-14,865
-18,689
-22,469
-26,2
-29,996
-34,073
-38,579
-43,496
-48,879
-54,898
-61,49
-68,409
-75,165
-80,948
-85,208
-87,797
-88,457
-86,805
-82,862
-76,934
-69,765
-62,623
-56,362
-51,341
-48,21
-47,984
-51,314
-58,349
-68,7
-81,426
-95,85
-111,578
-126,626
-137,131
-139,591
-131,812
-114,757
-91,333
-61,553
-21,07
39,126
127,474
245,835
388,436
540,908
687,05
815,855
921,102
1003,437
1067,31
1112,683
1135,918
1130,524
1085,848
995,789
860,92
685,167
480,196
261,527
46,276
-145,317
-296,407
-395,958
-442,647
-443,885
-409,296
-351,036
-278,539
-199,956
-128,164
-73,281
-40,553
-30,314
-33,321
-38,374
-39,98
-36,76
-32,206
-31,747
-36,508
-44,471
-52,671
-57,679
-57,973
-54,059
-46,913
-37,64
-27,24
-16,602
-6,5
2,244
8,859
13,139
15,199
15,284
13,833
11,268
7,939
4,252
0,592
-2,843
-5,933
-8,594
-10,778
-12,387
-13,348
-13,649
-13,309
-12,363
-10,836
-8,76
-6,189
-3,2
0,123
3,716
7,541
11,577
15,784
20,107
24,467
28,772
32,968
37,019
40,902
44,609
48,141
51,504
54,731
57,869
60,954
64,021
67,091
70,178
73,308
76,511
79,829
83,312
86,994
90,898
95,047
99,46
104,154
109,149
114,446
120,03
125,889
132,008
138,371
144,964
151,755
158,694
165,736
172,833
179,949
187,071
194,176
201,239
208,235
215,134
221,926
228,624
235,227
241,73
248,132
254,426
260,639
266,828
273,031
279,273
285,548
291,811
298,022
304,142
310,112
315,861
321,292
326,269
330,687
334,469
337,532
339,801
341,17
341,491
340,653
338,581
335,231
330,61
324,727
317,595
309,274
299,856
289,469
278,284
266,435
254,023
241,157
227,94
214,502
201,005
187,582
174,33
161,333
148,65
136,338
124,458
113,028
102,034
91,441
81,19
71,247
61,613
52,281
43,249
34,507
26,027
17,805
9,853
2,18
-5,204
-12,29
-19,082
-25,559
-31,689
-37,434
-42,754
-47,624
-52,038
-55,989
-59,477
-62,504
-65,078
-67,213
-68,935
-70,267
-71,228
-71,837
-72,112
-72,075
-71,757
-71,186
-70,392
-69,4
-68,237
-66,927
-65,494
-63,962
-62,349
-60,675
-58,955
-57,205
-55,444
-53,688
-51,954
-50,256
-48,609
-47,026
-45,517
-44,093
-42,762
-41,53
-40,4
-39,377
-38,461
-37,654
-36,956
-36,365
-35,881
-35,501
-35,222
-35,042
-34,956
-34,961
-35,053
-35,228
-35,481
-35,808
-36,204
-36,664
-37,183
-37,759
-38,385
-39,058
-39,773
-40,526
-41,312
-42,127
-42,967
-43,829
-44,71
-45,605
-46,514
-47,434
-48,364
-49,303
-50,251
-51,208
-52,172
-53,145
-54,125
-55,113
-56,108
-57,108
-58,113
-59,122
-60,132
-61,143
-62,151
-63,154
-64,15
-65,135
-66,107
-67,062
-67,997
-68,909
-69,793
-70,648
-71,468
-72,252
-72,995
-73,695
-74,349
-74,953
-75,504
-75,998
-76,434
-76,806
-77,113
-77,351
-77,518
-77,611
-77,629
-77,571
-77,435
-77,221
-76,93
-76,563
-76,121
-75,607
-75,023
-74,373
-73,661
-72,891
-72,07
-71,202
-70,293
-69,35
-68,378
-67,384
-66,374
-65,355
-64,333
-63,314
-62,306
-61,314
-60,345
-59,404
-58,499
-57,635
-56,818
-56,053
-55,347
-54,704
-54,128
-53,624
-53,196
-52,847
-52,579
-52,394
-52,295
-52,28
-52,351
-52,506
-52,744
-53,062
-53,458
-53,93
-54,472
-55,081
-55,753
-56,483
-57,265
-58,095
-58,968
-59,877
-60,817
-61,783
-62,768
-63,767
-64,774
-65,784
-66,79
-67,786
-68,768
-69,729
-70,665
-71,569
-72,437
-73,265
-74,048
-74,782
-75,465
-76,093
-76,664
-77,176
-77,629
-78,021
-78,352
-78,622
-78,832
-78,983
-79,076
-79,113
-79,096
-79,028
-78,912
-78,752
-78,55
-78,31
-78,036
-77,731
-77,4
-77,047
-76,676
-76,292
-75,901
-75,506
-75,113
-74,727
-74,352
-73,993
-73,653
-73,337
-73,048
-72,788
-72,561
-72,368
-72,213
-72,096
-72,019
-71,982
-71,986
-72,029
-72,111
-72,23
-72,382
-72,566
-72,776
-73,011
-73,264
-73,533
-73,81
-74,092
-74,37
-74,64
-74,893
-75,122
-75,319
-75,474
-75,58
-75,628
-75,61
-75,519
-75,347
-75,087
-74,731
-74,275
-73,712
-73,035
-72,24
-71,323
-70,28
-69,11
-67,811
-66,385
-64,834
-63,162
-61,377
-59,486
-57,496
-55,42
-53,269
-51,057
-48,801
-46,515
-44,216
-41,923
-39,651
-37,421
-35,25
-33,156
-31,154
-29,259
-27,488
-25,856
-24,378
-23,063
-21,913
-20,932
-20,119
-19,48
-19,026
-18,76
-18,687
-18,813
-19,139
-19,668
-20,401
-21,323
-22,402
-23,599
-24,873
-26,193
-27,549
-28,933
-30,327
-31,695
-32,982
-34,136
-35,106
-35,858
-36,332
-36,434
-36,155
-35,579
-34,89
-34,398
-34,367
-34,936
-36,295
-38,678
-42,061
-46,298
-51,046
-55,554
-59,253
-61,821
-62,712
-61,449
-58,034
-52,59
-45,62
-38,366
-31,771
-26,63
-24,307
-25,955
-32,156
-43,318
-59,094
-78,096
-98,988
-119,996
-138,169
-150,413
-153,682
-144,774
-121,164
-81,225
-23,624
52,016
144,479
251,54
370,107
495,157
619,899
737,523
840,943
925,525
991,81
1040,173
1069,039
1074,396
1045,535
972,502
852,373
687,237
488,817
274,933
63,655
-125,855
-277,977
-382,278
-436,468
-444,734
-414,476
-359,604
-291,613
-222,386
-166,845
-129,415
-110,154
-104,025
-98,093
-87,036
-71,347
-54,267
-43,309
-41,022
-45,371
-53,663
-61,99
-68,201
-71,863
-72,399
-69,848
-64,637
-57,214
-48,362
-38,903
-29,486
-20,825
-13,705
-8,521
-5,277
-3,778
-3,622
-4,427
-5,951
-7,917
-10,011
-12,049
-13,939
-15,638
-17,174
-18,543
-19,693
-20,58
-21,153
-21,372
-21,231
-20,742
-19,934
-18,841
-17,482
-15,866
-13,997
-11,882
-9,529
-6,952
-4,163
-1,183
1,953
5,187
8,442
11,668
14,844
17,969
21,063
24,145
27,225
30,323
33,465
36,672
39,964
43,352
46,842
50,447
54,195
58,117
62,256
66,644
71,295
76,22
81,42
86,893
92,631
98,619
104,832
111,247
117,843
124,6
131,501
138,522
145,632
152,801
159,994
167,174
174,307
181,356
188,283
195,053
201,628
207,975
214,061
219,855
225,321
230,428
235,142
239,434
243,273
246,631
249,483
251,804
253,574
254,775
255,393
255,414
254,832
253,639
251,832
249,412
246,382
242,748
238,518
233,703
228,32
222,385
215,918
208,943
201,484
193,57
185,231
176,497
167,403
157,982
148,271
138,305
128,123
117,763
107,263
96,663
86
75,313
64,641
54,021
43,489
33,079
22,826
12,763
2,919
-6,677
-15,997
-25,015
-33,71
-42,06
-50,045
-57,649
-64,858
-71,661
-78,047
-84,009
-89,543
-94,646
-99,318
-103,561
-107,378
-110,775
-113,759
-116,341
-118,532
-120,343
-121,79
-122,888
-123,652
-124,102
-124,255
-124,13
-123,747
-123,126
-122,287
-121,25
-120,036
-118,664
-117,156
-115,532
-113,809
-112,009
-110,148
-108,244
-106,314
-104,374
-102,438
-100,52
-98,634
-96,79
-95
-93,272
-91,617
-90,039
-88,547
-87,145
-85,836
-84,624
-83,51
-82,495
-81,579
-80,76
-80,038
-79,41
-78,872
-78,421
-78,053
-77,763
-77,547
-77,398
-77,311
-77,279
-77,298
-77,36
-77,459
-77,589
-77,744
-77,917
-78,103
-78,296
-78,491
-78,682
-78,865
-79,036
-79,19
-79,325
-79,437
-79,524
-79,584
-79,617
-79,622
-79,598
-79,547
-79,469
-79,365
-79,237
-79,087
-78,918
-78,731
-78,53
-78,318
-78,097
-77,872
-77,645
-77,422
-77,205
-76,998
-76,806
-76,631
-76,478
-76,351
-76,252
-76,185
-76,154
-76,161
-76,209
-76,301
-76,438
-76,623
-76,855
-77,135
-77,464
-77,841
-78,264
-78,734
-79,247
-79,801
-80,396
-81,028
-81,694
-82,392
-83,119
-83,871
-84,644
-85,436
-86,242
-87,06
-87,885
-88,714
-89,543
-90,369
-91,189
-92
-92,797
-93,579
-94,341
-95,081
-95,797
-96,485
-97,145
-97,776
-98,375
-98,942
-99,479
-99,984
-100,46
-100,905
-101,323
-101,714
-102,079
-102,42
-102,739
-103,037
-103,317
-103,58
-103,828
-104,063
-104,285
-104,497
-104,699
-104,892
-105,076
-105,25
-105,415
-105,569
-105,712
-105,843
-105,961
-106,065
-106,152
-106,22
-106,267
-106,289
-106,281
-106,239
-106,158
-106,032
-105,858
-105,628
-105,338
-104,984
-104,559
-104,06
-103,482
-102,819
-102,068
-101,224
-100,285
-99,247
-98,11
-96,873
-95,536
-94,105
-92,583
-90,977
-89,295
-87,544
-85,732
-83,871
-81,973
-80,048
-78,111
-76,173
-74,249
-72,357
-70,513
-68,735
-67,039
-65,439
-63,948
-62,58
-61,348
-60,263
-59,332
-58,559
-57,948
-57,503
-57,234
-57,151
-57,254
-57,543
-58,017
-58,668
-59,49
-60,471
-61,58
-62,788
-64,062
-65,362
-66,663
-67,942
-69,177
-70,357
-71,446
-72,404
-73,204
-73,802
-74,165
-74,295
-74,163
-73,748
-73,135
-72,441
-71,868
-71,731
-72,245
-73,561
-75,885
-79,325
-83,847
-89,322
-95,26
-100,941
-105,797
-109,197
-110,519
-109,448
-105,785
-99,593
-91,686
-83,093
-74,782
-68,288
-65,111
-66,23
-72,757
-84,509
-99,212
-114,92
-129,474
-141,392
-152,382
-162,624
-168,884
-164,846
-138,998
-81,255
10,943
133,112
273,049
416,275
552,166
673,159
776,017
859,309
921,964
965,62
988,827
989,115
962,904
900,892
799,768
660,716
486,866
292,509
93,775
-93,072
-247,546
-356,575
-416,848
-430,32
-407,193
-362,309
-305,635
-247,618
-199,211
-163,159
-140,948
-129,483
-118,673
-104,515
-86,495
-66,571
-51,486
-43,682
-41,922
-44,569
-48,04
-50,217
-50,797
-49,169
-45,389
-40,011
-33,343
-25,881
-18,375
-11,362
-5,413
-1,298
0,69
0,675
-1,124
-4,275
-8,313
-12,936
-17,744
-22,214
-26,03
-28,993
-30,989
-32,078
-32,293
-31,623
-30,117
-27,846
-24,88
-21,33
-17,291
-12,829
-8,041
-3,017
2,147
7,323
12,42
17,366
22,112
26,639
30,942
35,009
38,845
42,467
45,898
49,18
52,349
55,436
58,481
61,524
64,613
67,81
71,162
74,707
78,472
82,472
86,718
91,227
96,01
101,073
106,418
112,039
117,93
124,083
130,486
137,118
143,945
150,916
157,983
165,1
172,235
179,371
186,489
193,566
200,58
207,506
214,337
221,083
227,741
234,305
240,769
247,127
253,401
259,644
265,894
272,173
278,479
284,768
291
297,135
303,11
308,855
314,266
319,203
323,559
327,251
330,194
332,314
333,502
333,612
332,532
330,182
326,514
321,53
315,234
307,637
298,796
288,802
277,785
265,92
253,346
240,168
226,496
212,438
198,125
183,723
169,368
155,163
141,197
127,538
114,249
101,399
89,013
77,08
65,569
54,422
43,606
33,122
22,965
13,135
3,623
-5,595
-14,524
-23,148
-31,458
-39,443
-47,095
-54,416
-61,388
-67,973
-74,135
-79,83
-85,031
-89,728
-93,914
-97,587
-100,75
-103,409
-105,58
-107,29
-108,563
-109,42
-109,881
-109,967
-109,703
-109,12
-108,25
-107,123
-105,771
-104,22
-102,497
-100,629
-98,639
-96,549
-94,378
-92,143
-89,861
-87,55
-85,23
-82,917
-80,627
-78,376
-76,178
-74,048
-71,996
-70,032
-68,164
-66,399
-64,741
-63,194
-61,761
-60,442
-59,238
-58,149
-57,171
-56,303
-55,541
-54,882
-54,319
-53,85
-53,467
-53,167
-52,944
-52,792
-52,707
-52,684
-52,718
-52,805
-52,941
-53,121
-53,34
-53,596
-53,882
-54,196
-54,534
-54,89
-55,262
-55,647
-56,042
-56,443
-56,85
-57,258
-57,667
-58,075
-58,48
-58,881
-59,276
-59,666
-60,048
-60,422
-60,789
-61,147
-61,496
-61,835
-62,163
-62,48
-62,786
-63,077
-63,355
-63,616
-63,861
-64,087
-64,293
-64,479
-64,642
-64,783
-64,899
-64,99
-65,056
-65,095
-65,108
-65,094
-65,054
-64,989
-64,899
-64,785
-64,65
-64,493
-64,318
-64,126
-63,919
-63,699
-63,469
-63,23
-62,985
-62,737
-62,489
-62,243
-62,002
-61,768
-61,544
-61,332
-61,136
-60,955
-60,794
-60,653
-60,534
-60,439
-60,37
-60,326
-60,309
-60,319
-60,356
-60,417
-60,503
-60,609
-60,734
-60,873
-61,024
-61,182
-61,342
-61,501
-61,651
-61,788
-61,905
-61,996
-62,053
-62,071
-62,041
-61,957
-61,814
-61,604
-61,323
-60,966
-60,527
-60,001
-59,386
-58,676
-57,868
-56,96
-55,95
-54,836
-53,62
-52,302
-50,887
-49,38
-47,789
-46,122
-44,388
-42,599
-40,768
-38,909
-37,04
-35,177
-33,333
-31,527
-29,775
-28,094
-26,502
-25,013
-23,641
-22,397
-21,297
-20,354
-19,581
-18,985
-18,567
-18,326
-18,26
-18,375
-18,681
-19,184
-19,889
-20,795
-21,904
-23,222
-24,745
-26,461
-28,332
-30,307
-32,34
-34,395
-36,454
-38,513
-40,546
-42,503
-44,327
-45,95
-47,319
-48,414
-49,17
-49,499
-49,404
-48,97
-48,417
-48,102
-48,306
-49,196
-50,981
-53,803
-57,611
-62,267
-67,312
-72,007
-75,803
-78,221
-78,788
-77,355
-74,046
-69,157
-63,544
-58,296
-54,261
-52,503
-54,081
-59,569
-69,208
-82,643
-98,807
-116,627
-134,949
-151,892
-164,202
-167,797
-159,516
-137,678
-103,883
-61,441
-10,496
51,158
128,691
229,393
354,467
498,427
650,526
793,246
910,966
995,014
1042,056
1056,369
1044,384
1007,969
945,098
851,207
721,743
557,609
367,624
164,793
-32,868
-206,526
-343,222
-433,05
-475,479
-476,812
-443,146
-386,828
-318,788
-249,415
-193,101
-155,125
-135,23
-128,42
-122,648
-112,384
-97,754
-81,942
-71,657
-68,914
-72,237
-79,455
-87,18
-93,963
-99,341
-102,158
-102,222
-99,836
-94,985
-88,132
-79,696
-69,622
-58,651
-48,181
-38,952
-31,279
-25,317
-20,825
-17,755
-16,424
-16,605
-17,591
-18,966
-20,451
-21,888
-23,366
-24,815
-25,966
-26,771
-27,371
-27,82
-28,153
-28,362
-28,339
-28,056
-27,563
-26,842
-25,845
-24,533
-22,86
-20,818
-18,449
-15,775
-12,803
-9,564
-6,089
-2,431
1,332
5,156
9,031
12,951
16,922
20,951
25,036
29,186
33,425
37,776
42,263
46,91
51,727
56,727
61,932
67,366
73,052
79,002
85,202
91,62
98,23
105,007
111,929
118,971
126,094
133,251
140,407
147,525
154,584
161,574
168,486
175,308
182,054
188,752
195,445
202,19
209,017
215,923
222,904
229,944
237,032
244,164
251,32
258,458
265,534
272,494
279,262
285,751
291,83
297,324
302,064
305,875
308,62
310,211
310,562
309,598
307,254
303,471
298,207
291,44
283,149
273,309
261,947
249,133
234,995
219,73
203,526
186,57
169,041
151,094
132,89
114,599
96,383
78,396
60,81
43,804
27,563
12,289
-1,877
-14,853
-26,599
-37,134
-46,478
-54,647
-61,677
-67,619
-72,527
-76,467
-79,512
-81,734
-83,247
-84,205
-84,759
-85,074
-85,275
-85,436
-85,62
-85,865
-86,195
-86,637
-87,194
-87,854
-88,611
-89,462
-90,392
-91,389
-92,406
-93,365
-94,199
-94,849
-95,274
-95,458
-95,392
-95,068
-94,497
-93,7
-92,703
-91,54
-90,238
-88,814
-87,292
-85,699
-84,073
-82,463
-80,907
-79,432
-78,063
-76,814
-75,696
-74,722
-73,89
-73,19
-72,615
-72,156
-71,807
-71,564
-71,423
-71,374
-71,406
-71,509
-71,673
-71,892
-72,158
-72,462
-72,798
-73,16
-73,542
-73,942
-74,357
-74,781
-75,209
-75,633
-76,049
-76,453
-76,839
-77,201
-77,537
-77,842
-78,115
-78,354
-78,56
-78,729
-78,864
-78,964
-79,031
-79,068
-79,077
-79,061
-79,023
-78,967
-78,898
-78,821
-78,738
-78,655
-78,576
-78,505
-78,447
-78,406
-78,387
-78,395
-78,432
-78,504
-78,615
-78,768
-78,967
-79,215
-79,515
-79,869
-80,279
-80,747
-81,274
-81,86
-82,506
-83,21
-83,971
-84,789
-85,66
-86,582
-87,552
-88,566
-89,62
-90,71
-91,83
-92,976
-94,143
-95,325
-96,516
-97,711
-98,905
-100,091
-101,264
-102,418
-103,548
-104,648
-105,713
-106,737
-107,716
-108,645
-109,521
-110,338
-111,095
-111,787
-112,412
-112,968
-113,454
-113,869
-114,211
-114,482
-114,682
-114,813
-114,876
-114,874
-114,81
-114,688
-114,511
-114,284
-114,011
-113,698
-113,349
-112,969
-112,565
-112,141
-111,704
-111,259
-110,812
-110,368
-109,933
-109,513
-109,112
-108,736
-108,388
-108,074
-107,797
-107,561
-107,368
-107,222
-107,124
-107,075
-107,075
-107,126
-107,225
-107,371
-107,562
-107,796
-108,068
-108,374
-108,711
-109,072
-109,453
-109,847
-110,249
-110,652
-111,048
-111,433
-111,797
-112,135
-112,439
-112,702
-112,917
-113,078
-113,178
-113,21
-113,169
-113,048
-112,842
-112,546
-112,156
-111,668
-111,079
-110,386
-109,589
-108,685
-107,676
-106,562
-105,345
-104,027
-102,612
-101,104
-99,507
-97,827
-96,069
-94,24
-92,348
-90,4
-88,403
-86,366
-84,298
-82,208
-80,103
-77,994
-75,89
-73,799
-71,731
-69,696
-67,701
-65,757
-63,872
-62,055
-60,313
-58,655
-57,087
-55,616
-54,247
-52,986
-51,837
-50,803
-49,887
-49,091
-48,417
-47,866
-47,436
-47,128
-46,94
-46,87
-46,914
-47,069
-47,332
-47,698
-48,161
-48,718
-49,361
-50,086
-50,886
-51,754
-52,682
-53,665
-54,693
-55,758
-56,852
-57,967
-59,094
-60,223
-61,348
-62,459
-63,549
-64,609
-65,633
-66,611
-67,539
-68,407
-69,211
-69,941
-70,594
-71,161
-71,638
-72,019
-72,3
-72,476
-72,542
-72,494
-72,328
-72,04
-71,627
-71,086
-70,412
-69,604
-68,66
-67,579
-66,36
-65,006
-63,515
-61,889
-60,132
-58,244
-56,231
-54,094
-51,838
-49,469
-46,992
-44,415
-41,744
-38,991
-36,164
-33,276
-30,34
-27,371
-24,385
-21,399
-18,431
-15,5
-12,626
-9,828
-7,124
-4,53
-2,065
0,256
2,414
4,393
6,178
7,753
9,105
10,225
11,106
11,749
12,157
12,334
12,281
11,994
11,467
10,697
9,679
8,41
6,893
5,134
3,157
1,006
-1,278
-3,654
-6,089
-8,574
-11,087
-13,589
-16,037
-18,367
-20,517
-22,445
-24,072
-25,288
-26,067
-26,457
-26,595
-26,75
-27,124
-27,808
-28,981
-30,87
-33,509
-36,783
-40,357
-43,657
-46,346
-48,369
-49,497
-49,323
-47,712
-44,754
-40,916
-37,081
-33,759
-31,075
-29,51
-29,994
-33,321
-40,051
-50,179
-62,966
-77,808
-94,139
-110,599
-124,82
-133,864
-134,562
-124,014
-99,868
-59,855
-2,119
73,988
167,626
276,418
396,864
524,808
654,28
777,617
887,58
977,106
1043,116
1087,423
1109,147
1107,059
1077,534
1010,867
904,282
759,556
580,332
380,824
176,479
-17,055
-179,465
-296,837
-364,519
-384,067
-365,508
-322,936
-266,586
-205,66
-149,925
-105,389
-75,782
-61,101
-54,605
-48,71
-39,752
-27,325
-15,115
-7,911
-6,747
-10,465
-16,529
-21,746
-24,707
-24,986
-22,602
-18,258
-12,517
-5,816
1,099
7,568
12,964
16,545
18,056
17,631
15,502
12,106
7,922
3,311
-1,296
-5,43
-8,844
-11,401
-13,017
-13,74
-13,599
-12,599
-10,805
-8,297
-5,144
-1,439
2,725
7,255
12,026
16,916
21,804
26,59
31,206
35,599
39,724
43,557
47,088
50,314
53,253
55,918
58,327
60,509
62,498
64,337
66,082
67,792
69,53
71,35
73,296
75,404
77,704
80,222
82,979
85,99
89,259
92,798
96,62
100,747
105,199
109,986
115,1
120,528
126,255
132,266
138,546
145,071
151,808
158,732
165,831
173,107
180,567
188,198
195,975
203,854
211,792
219,76
227,744
235,729
243,688
251,59
259,411
267,149
274,809
282,37
289,771
296,915
303,709
310,091
316,014
321,448
326,355
330,674
334,346
337,324
339,578
341,081
341,799
341,674
340,654
338,735
335,96
332,411
328,159
323,234
317,654
311,431
304,586
297,17
289,224
280,767
271,823
262,423
252,602
242,414
231,896
221,033
209,807
198,186
186,164
173,793
161,138
148,279
135,314
122,317
109,368
96,567
83,992
71,705
59,787
48,304
37,349
27,055
17,523
8,84
1,071
-5,78
-11,732
-16,824
-21,143
-24,764
-27,751
-30,177
-32,087
-33,516
-34,526
-35,171
-35,525
-35,692
-35,75
-35,76
-35,783
-35,838
-35,927
-36,036
-36,109
-36,098
-35,977
-35,73
-35,355
-34,867
-34,266
-33,557
-32,747
-31,828
-30,797
-29,659
-28,41
-27,065
-25,649
-24,192
-22,745
-21,354
-20,05
-18,857
-17,791
-16,859
-16,067
-15,418
-14,904
-14,525
-14,278
-14,163
-14,184
-14,34
-14,623
-15,028
-15,543
-16,154
-16,854
-17,632
-18,479
-19,39
-20,357
-21,377
-22,447
-23,565
-24,725
-25,922
-27,15
-28,4
-29,667
-30,944
-32,224
-33,501
-34,77
-36,026
-37,268
-38,491
-39,694
-40,874
-42,03
-43,161
-44,267
-45,346
-46,398
-47,424
-48,421
-49,392
-50,335
-51,252
-52,142
-53,005
-53,841
-54,651
-55,435
-56,192
-56,922
-57,624
-58,3
-58,948
-59,57
-60,166
-60,735
-61,28
-61,801
-62,298
-62,772
-63,225
-63,654
-64,062
-64,447
-64,809
-65,148
-65,464
-65,756
-66,025
-66,269
-66,489
-66,685
-66,857
-67,005
-67,13
-67,231
-67,311
-67,37
-67,408
-67,427
-67,429
-67,414
-67,385
-67,343
-67,289
-67,224
-67,152
-67,071
-66,985
-66,895
-66,801
-66,705
-66,609
-66,514
-66,422
-66,333
-66,251
-66,175
-66,108
-66,05
-66,003
-65,968
-65,945
-65,935
-65,939
-65,957
-65,989
-66,035
-66,095
-66,167
-66,253
-66,349
-66,457
-66,573
-66,697
-66,828
-66,964
-67,104
-67,247
-67,391
-67,536
-67,679
-67,82
-67,958
-68,091
-68,218
-68,337
-68,448
-68,55
-68,64
-68,719
-68,785
-68,838
-68,877
-68,902
-68,912
-68,906
-68,886
-68,851
-68,803
-68,74
-68,666
-68,58
-68,484
-68,38
-68,269
-68,154
-68,036
-67,916
-67,797
-67,68
-67,566
-67,458
-67,356
-67,262
-67,178
-67,104
-67,042
-66,994
-66,96
-66,942
-66,94
-66,956
-66,99
-67,043
-67,116
-67,209
-67,322
-67,456
-67,611
-67,786
-67,983
-68,199
-68,434
-68,688
-68,959
-69,245
-69,546
-69,859
-70,183
-70,518
-70,862
-71,214
-71,572
-71,937
-72,307
-72,682
-73,061
-73,443
-73,829
-74,218
-74,61
-75,005
-75,403
-75,806
-76,213
-76,626
-77,044
-77,468
-77,899
-78,338
-78,784
-79,24
-79,707
-80,185
-80,675
-81,181
-81,703
-82,242
-82,801
-83,38
-83,981
-84,604
-85,249
-85,917
-86,607
-87,319
-88,052
-88,806
-89,578
-90,367
-91,171
-91,987
-92,812
-93,642
-94,473
-95,299
-96,116
-96,918
-97,701
-98,457
-99,182
-99,869
-100,512
-101,103
-101,636
-102,103
-102,497
-102,809
-103,031
-103,157
-103,178
-103,089
-102,883
-102,552
-102,093
-101,5
-100,769
-99,896
-98,878
-97,712
-96,399
-94,938
-93,33
-91,578
-89,686
-87,659
-85,505
-83,236
-80,862
-78,398
-75,858
-73,261
-70,624
-67,965
-65,298
-62,638
-60
-57,399
-54,853
-52,377
-49,99
-47,711
-45,556
-43,543
-41,684
-39,985
-38,447
-37,066
-35,842
-34,78
-33,897
-33,212
-32,737
-32,49
-32,479
-32,712
-33,182
-33,862
-34,711
-35,685
-36,75
-37,887
-39,087
-40,327
-41,568
-42,756
-43,805
-44,648
-45,208
-45,377
-45,127
-44,497
-43,602
-42,661
-41,891
-41,429
-41,415
-41,981
-43,054
-44,424
-45,768
-46,668
-46,975
-46,73
-46,023
-44,951
-43,741
-42,828
-42,763
-44,053
-46,691
-50,373
-54,739
-59,664
-65,265
-71,368
-77,775
-84,384
-91,432
-99,617
-108,556
-116,081
-119,747
-117,041
-108,084
-96,146
-81,22
-60,492
-26,235
34,144
126,083
248,386
392,611
541,947
682,841
805,463
904,106
979,453
1032,963
1065,367
1074,301
1054,372
999,899
906,761
777,317
618,5
437,997
246,006
53,969
-125,842
-276,675
-382,907
-438,713
-444,689
-409,458
-349,99
-278,865
-208,185
-151,243
-111,251
-88,898
-81,009
-76,557
-70,649
-62,468
-53,027
-48,065
-49,499
-55,683
-64,305
-71,625
-75,59
-75,944
-72,958
-67,604
-60,825
-53,297
-45,876
-39,303
-34,206
-31,21
-30,459
-31,743
-34,684
-38,722
-43,327
-48,083
-52,604
-56,525
-59,635
-61,813
-62,991
-63,21
-62,517
-60,955
-58,597
-55,518
-51,8
-47,554
-42,923
-38,065
-33,123
-28,215
-23,417
-18,788
-14,378
-10,232
-6,385
-2,844
0,401
3,363
6,056
8,485
10,674
12,663
14,516
16,304
18,083
19,896
21,777
23,759
25,871
28,142
30,589
33,221
36,051
39,093
42,362
45,877
49,65
53,682
57,974
62,526
67,342
72,431
77,792
83,415
89,291
95,404
101,728
108,238
114,889
121,629
128,418
135,223
142,02
148,799
155,545
162,243
168,879
175,424
181,854
188,151
194,282
200,223
205,97
211,527
216,928
222,221
227,422
232,526
237,507
242,301
246,839
251,044
254,819
258,089
260,794
262,885
264,341
265,155
265,299
264,723
263,35
261,068
257,802
253,51
248,161
241,777
234,409
226,131
217,058
207,303
196,947
186,051
174,641
162,71
150,268
137,362
124,07
110,514
96,824
83,112
69,505
56,117
43,02
30,26
17,843
5,756
-5,985
-17,331
-28,207
-38,504
-48,104
-56,933
-64,942
-72,11
-78,466
-84,045
-88,915
-93,178
-96,905
-100,139
-102,903
-105,194
-107,019
-108,421
-109,449
-110,176
-110,697
-111,084
-111,399
-111,7
-112,003
-112,308
-112,59
-112,789
-112,86
-112,782
-112,546
-112,165
-111,658
-111,03
-110,289
-109,445
-108,492
-107,428
-106,253
-104,962
-103,566
-102,092
-100,57
-99,052
-97,586
-96,204
-94,933
-93,793
-92,793
-91,944
-91,251
-90,71
-90,322
-90,089
-90,014
-90,102
-90,355
-90,769
-91,338
-92,055
-92,907
-93,886
-94,984
-96,191
-97,5
-98,904
-100,398
-101,977
-103,638
-105,372
-107,174
-109,034
-110,943
-112,893
-114,872
-116,872
-118,88
-120,888
-122,887
-124,866
-126,818
-128,733
-130,604
-132,422
-134,179
-135,867
-137,479
-139,006
-140,441
-141,777
-143,007
-144,125
-145,124
-146
-146,746
-147,358
-147,833
-148,167
-148,355
-148,396
-148,286
-148,024
-147,608
-147,039
-146,317
-145,441
-144,414
-143,239
-141,916
-140,45
-138,844
-137,102
-135,228
-133,227
-131,103
-128,863
-126,513
-124,059
-121,509
-118,869
-116,148
-113,354
-110,493
-107,576
-104,609
-101,6
-98,559
-95,493
-92,41
-89,318
-86,224
-83,135
-80,058
-77
-73,966
-70,962
-67,993
-65,063
-62,178
-59,34
-56,553
-53,82
-51,144
-48,528
-45,971
-43,477
-41,046
-38,678
-36,374
-34,133
-31,955
-29,839
-27,783
-25,788
-23,851
-21,97
-20,145
-18,373
-16,653
-14,983
-13,361
-11,786
-10,256
-8,772
-7,331
-5,935
-4,582
-3,274
-2,011
-0,795
0,374
1,494
2,563
3,578
4,538
5,439
6,278
7,053
7,76
8,396
8,957
9,441
9,844
10,163
10,396
10,541
10,594
10,555
10,422
10,193
9,867
9,445
8,925
8,309
7,599
6,796
5,902
4,923
3,862
2,725
1,519
0,249
-1,075
-2,448
-3,858
-5,297
-6,755
-8,221
-9,684
-11,131
-12,551
-13,932
-15,26
-16,525
-17,714
-18,817
-19,822
-20,72
-21,5
-22,154
-22,672
-23,047
-23,271
-23,337
-23,241
-22,979
-22,548
-21,949
-21,181
-20,25
-19,162
-17,925
-16,547
-15,039
-13,413
-11,686
-9,874
-7,995
-6,064
-4,099
-2,118
-0,142
1,807
3,709
5,546
7,3
8,953
10,485
11,876
13,107
14,174
15,07
15,788
16,321
16,649
16,753
16,628
16,265
15,661
14,816
13,729
12,412
10,899
9,231
7,462
5,634
3,768
1,881
-0,014
-1,889
-3,68
-5,327
-6,775
-7,967
-8,889
-9,521
-9,82
-9,837
-9,714
-9,641
-9,945
-10,912
-12,629
-15,187
-18,638
-22,843
-27,735
-33,117
-38,408
-43,107
-46,927
-49,584
-51,102
-51,778
-51,591
-50,691
-49,724
-49,322
-50,257
-53,349
-58,764
-66,172
-75,558
-86,777
-99,174
-111,787
-121,964
-125,761
-120,342
-104,279
-78,709
-46,486
-7,787
40,669
105,629
194,028
306,655
436,752
570,389
691,915
790,704
862,916
912,226
943,606
957,824
951,293
914,24
837,98
720,565
564,77
382,328
189,752
3,011
-159,739
-285,022
-368,541
-412,908
-427,901
-425,287
-410,495
-383,094
-343,021
-291,913
-235,955
-185,763
-146,268
-116,802
-95,348
-77,196
-61,244
-50,565
-45,93
-47,502
-54,242
-62,433
-69,727
-75,005
-77,153
-76,349
-73,264
-68,331
-62,257
-55,979
-50,231
-45,739
-43,28
-43,061
-44,872
-48,386
-53,083
-58,461
-64,117
-69,613
-74,478
-78,414
-81,297
-83,1
-83,903
-83,775
-82,748
-80,89
-78,3
-75,094
-71,382
-67,284
-62,908
-58,36
-53,774
-49,258
-44,899
-40,78
-36,946
-33,419
-30,211
-27,321
-24,737
-22,445
-20,425
-18,639
-17,053
-15,626
-14,308
-13,048
-11,786
-10,468
-9,051
-7,495
-5,771
-3,855
-1,725
0,637
3,237
6,087
9,199
12,588
16,271
20,26
24,557
29,157
34,05
39,221
44,656
50,33
56,211
62,268
68,473
74,801
81,237
87,761
94,352
100,984
107,622
114,251
120,867
127,475
134,087
140,719
147,387
154,126
160,985
167,999
175,182
182,529
190,014
197,616
205,3
213,032
220,78
228,48
236,044
243,377
250,361
256,87
262,777
267,924
272,135
275,272
277,23
277,946
277,394
275,541
272,372
267,892
262,102
255,047
246,795
237,413
227,014
215,739
203,736
191,211
178,395
165,473
152,598
139,889
127,424
115,295
103,591
92,372
81,707
71,645
62,225
53,511
45,522
38,239
31,625
25,587
20
14,785
9,881
5,242
0,86
-3,29
-7,232
-10,967
-14,503
-17,852
-21,037
-24,109
-27,103
-30,018
-32,839
-35,516
-37,979
-40,185
-42,106
-43,713
-45,004
-45,979
-46,636
-47
-47,096
-46,937
-46,53
-45,865
-44,935
-43,753
-42,341
-40,734
-38,981
-37,119
-35,181
-33,204
-31,218
-29,244
-27,3
-25,396
-23,531
-21,715
-19,96
-18,278
-16,687
-15,198
-13,815
-12,545
-11,387
-10,343
-9,413
-8,593
-7,88
-7,272
-6,768
-6,369
-6,078
-5,893
-5,814
-5,837
-5,959
-6,175
-6,48
-6,866
-7,327
-7,856
-8,446
-9,091
-9,785
-10,522
-11,297
-12,102
-12,935
-13,788
-14,658
-15,54
-16,43
-17,323
-18,216
-19,106
-19,991
-20,867
-21,732
-22,585
-23,424
-24,248
-25,054
-25,843
-26,614
-27,365
-28,098
-28,812
-29,508
-30,187
-30,851
-31,501
-32,139
-32,768
-33,39
-34,007
-34,62
-35,231
-35,843
-36,455
-37,07
-37,689
-38,31
-38,936
-39,565
-40,197
-40,833
-41,47
-42,108
-42,745
-43,38
-44,011
-44,637
-45,256
-45,866
-46,464
-47,049
-47,619
-48,171
-48,702
-49,211
-49,694
-50,15
-50,577
-50,971
-51,331
-51,656
-51,943
-52,191
-52,399
-52,568
-52,696
-52,785
-52,836
-52,849
-52,827
-52,773
-52,688
-52,578
-52,445
-52,293
-52,128
-51,954
-51,777
-51,602
-51,435
-51,281
-51,145
-51,035
-50,955
-50,91
-50,906
-50,948
-51,039
-51,186
-51,391
-51,658
-51,99
-52,388
-52,855
-53,391
-53,995
-54,666
-55,403
-56,201
-57,058
-57,969
-58,928
-59,929
-60,965
-62,029
-63,112
-64,205
-65,298
-66,38
-67,44
-68,467
-69,448
-70,374
-71,231
-72,009
-72,697
-73,285
-73,762
-74,119
-74,348
-74,44
-74,387
-74,183
-73,824
-73,306
-72,628
-71,789
-70,793
-69,646
-68,355
-66,93
-65,381
-63,72
-61,961
-60,119
-58,212
-56,256
-54,272
-52,279
-50,3
-48,359
-46,48
-44,687
-43,002
-41,443
-40,03
-38,781
-37,714
-36,843
-36,179
-35,734
-35,519
-35,548
-35,833
-36,378
-37,188
-38,261
-39,593
-41,174
-42,989
-45,009
-47,206
-49,549
-52,001
-54,528
-57,093
-59,655
-62,183
-64,645
-67,006
-69,235
-71,285
-73,104
-74,662
-75,956
-76,999
-77,804
-78,441
-79,033
-79,791
-81,025
-83,021
-85,966
-89,962
-95,101
-101,314
-108,335
-115,717
-122,687
-128,396
-132,203
-133,701
-132,583
-128,855
-122,898
-115,335
-107,442
-100,821
-96,761
-96,315
-100,373
-109,3
-122,963
-139,976
-157,076
-170,783
-178,45
-180,012
-176,911
-167,857
-147,919
-107,614
-37,77
63,551
190,92
332,17
474,107
607,956
728,027
830,906
913,242
970,834
1001,905
1006,12
983,584
934,812
856,242
744,408
599,249
421,897
222,19
16,685
-176,864
-336,625
-446,439
-502,555
-508,11
-474,228
-416,288
-344,656
-268,396
-197,761
-139,231
-98,408
-78,466
-74,992
-82,264
-94,116
-103,686
-108,71
-108,35
-104,092
-100,283
-98,936
-101,368
-106,377
-109,939
-110,253
-106,518
-99,25
-91,023
-83,318
-76,903
-72,593
-70,302
-69,821
-71,057
-73,531
-76,712
-80,209
-83,605
-86,508
-88,707
-90,079
-90,551
-90,149
-88,92
-86,9
-84,147
-80,731
-76,728
-72,224
-67,342
-62,232
-57,025
-51,836
-46,747
-41,802
-37,04
-32,498
-28,199
-24,154
-20,369
-16,831
-13,534
-10,479
-7,648
-5,009
-2,513
-0,085
2,336
4,794
7,329
9,974
12,756
15,704
18,839
22,168
25,704
29,465
33,467
37,736
42,29
47,134
52,265
57,681
63,375
69,336
75,548
81,983
88,603
95,381
102,289
109,304
116,402
123,54
130,68
137,794
144,851
151,838
158,747
165,558
172,248
178,815
185,268
191,652
198,037
204,448
210,893
217,36
223,851
230,423
237,08
243,713
250,123
256,095
261,51
266,434
270,95
274,947
278,354
281,227
283,803
286,472
289,318
291,934
293,718
294,268
293,283
290,442
285,207
276,829
264,984
250,026
232,73
213,818
193,805
173,128
152,368
132,291
113,434
95,873
79,316
63,492
48,326
33,847
20,093
7,011
-5,458
-17,208
-27,997
-37,669
-46,177
-53,552
-59,903
-65,308
-69,828
-73,6
-76,797
-79,546
-81,957
-84,103
-86,031
-87,838
-89,616
-91,418
-93,282
-95,208
-97,189
-99,232
-101,333
-103,456
-105,556
-107,566
-109,407
-111,046
-112,458
-113,616
-114,505
-115,092
-115,353
-115,291
-114,918
-114,252
-113,31
-112,107
-110,658
-109
-107,178
-105,237
-103,232
-101,199
-99,162
-97,151
-95,188
-93,292
-91,479
-89,757
-88,123
-86,581
-85,135
-83,789
-82,547
-81,407
-80,362
-79,408
-78,537
-77,746
-77,029
-76,383
-75,802
-75,285
-74,829
-74,433
-74,097
-73,819
-73,595
-73,421
-73,29
-73,198
-73,139
-73,106
-73,093
-73,094
-73,105
-73,119
-73,134
-73,145
-73,147
-73,138
-73,114
-73,071
-73,008
-72,92
-72,807
-72,667
-72,498
-72,3
-72,072
-71,814
-71,525
-71,207
-70,857
-70,478
-70,069
-69,631
-69,165
-68,673
-68,156
-67,618
-67,061
-66,487
-65,9
-65,304
-64,701
-64,096
-63,49
-62,888
-62,292
-61,705
-61,131
-60,571
-60,029
-59,507
-59,007
-58,531
-58,082
-57,66
-57,268
-56,906
-56,574
-56,275
-56,007
-55,772
-55,57
-55,401
-55,264
-55,159
-55,086
-55,041
-55,025
-55,035
-55,069
-55,124
-55,198
-55,288
-55,392
-55,505
-55,627
-55,752
-55,88
-56,005
-56,126
-56,238
-56,34
-56,427
-56,497
-56,548
-56,576
-56,581
-56,56
-56,511
-56,433
-56,324
-56,183
-56,009
-55,8
-55,556
-55,277
-54,961
-54,611
-54,225
-53,805
-53,352
-52,868
-52,354
-51,811
-51,243
-50,649
-50,034
-49,4
-48,748
-48,083
-47,408
-46,725
-46,038
-45,351
-44,668
-43,991
-43,324
-42,67
-42,034
-41,417
-40,823
-40,256
-39,719
-39,216
-38,75
-38,324
-37,941
-37,605
-37,317
-37,08
-36,897
-36,769
-36,699
-36,688
-36,738
-36,85
-37,026
-37,267
-37,572
-37,943
-38,379
-38,879
-39,442
-40,066
-40,75
-41,491
-42,287
-43,134
-44,03
-44,971
-45,952
-46,969
-48,016
-49,087
-50,175
-51,275
-52,377
-53,476
-54,564
-55,633
-56,675
-57,683
-58,647
-59,56
-60,412
-61,194
-61,896
-62,51
-63,026
-63,436
-63,732
-63,904
-63,948
-63,855
-63,619
-63,236
-62,701
-62,008
-61,154
-60,137
-58,956
-57,611
-56,104
-54,439
-52,622
-50,664
-48,574
-46,363
-44,045
-41,631
-39,139
-36,585
-33,985
-31,358
-28,721
-26,097
-23,507
-20,974
-18,522
-16,173
-13,945
-11,86
-9,935
-8,189
-6,64
-5,297
-4,168
-3,264
-2,594
-2,172
-2,009
-2,105
-2,46
-3,074
-3,938
-5,045
-6,377
-7,897
-9,571
-11,363
-13,23
-15,147
-17,087
-19,021
-20,931
-22,779
-24,526
-26,149
-27,607
-28,858
-29,897
-30,695
-31,23
-31,597
-31,918
-32,382
-33,29
-34,845
-37,188
-40,535
-45,014
-50,577
-57,076
-64,034
-70,728
-76,638
-81,24
-83,909
-84,258
-82,062
-77,302
-70,645
-63,126
-55,61
-49,141
-44,997
-44,244
-47,851
-56,483
-69,007
-82,976
-96,337
-107,206
-115,778
-123,507
-128,607
-125,522
-104,526
-55,439
25,757
135,53
263,479
398,056
531,563
658,951
776,927
881,384
965,758
1026,728
1065,198
1081,458
1076,377
1044,439
973,04
854,93
687,024
477,258
248,032
23,766
-169,604
-312,786
-401,148
-439,273
-439,783
-415,057
-370,451
-309,243
-234,009
-153,265
-83,359
-36,158
-16,917
-20,961
-33,413
-44,067
-49,205
-50,198
-53,904
-62,964
-75,114
-86,957
-94,085
-94,752
-89,931
-80,862
-68,91
-55,259
-40,923
-27,129
-15,138
-5,614
1,386
6,053
8,771
9,957
9,989
9,348
8,521
7,752
7,109
6,586
6,082
5,553
5,029
4,534
4,145
3,979
4,114
4,608
5,494
6,746
8,333
10,216
12,344
14,686
17,224
19,942
22,849
25,954
29,24
32,672
36,179
39,666
43,078
46,38
49,555
52,606
55,542
58,377
61,147
63,896
66,655
69,449
72,294
75,2
78,192
81,3
84,565
88,03
91,731
95,694
99,943
104,5
109,374
114,56
120,044
125,801
131,805
138,027
144,43
150,963
157,583
164,258
170,96
177,671
184,37
191,029
197,623
204,13
210,531
216,815
222,965
228,954
234,776
240,44
245,971
251,427
256,829
262,156
267,38
272,456
277,338
281,981
286,329
290,294
293,807
296,814
299,269
301,147
302,387
302,891
302,541
301,202
298,79
295,283
290,674
284,958
278,159
270,308
261,464
251,742
241,224
229,948
217,961
205,31
192,092
178,466
164,619
150,726
136,926
123,313
109,97
96,991
84,447
72,382
60,823
49,756
39,206
29,254
19,969
11,387
3,507
-3,742
-10,456
-16,699
-22,521
-27,964
-33,055
-37,836
-42,337
-46,556
-50,487
-54,118
-57,469
-60,604
-63,583
-66,429
-69,146
-71,699
-74,033
-76,124
-77,956
-79,501
-80,751
-81,696
-82,332
-82,683
-82,779
-82,638
-82,265
-81,649
-80,776
-79,656
-78,305
-76,756
-75,048
-73,21
-71,269
-69,262
-67,214
-65,148
-63,081
-61,018
-58,958
-56,911
-54,886
-52,895
-50,953
-49,069
-47,248
-45,496
-43,814
-42,204
-40,668
-39,203
-37,808
-36,486
-35,237
-34,067
-32,982
-31,986
-31,083
-30,275
-29,564
-28,953
-28,443
-28,033
-27,724
-27,516
-27,409
-27,404
-27,501
-27,702
-28,005
-28,41
-28,917
-29,524
-30,231
-31,035
-31,935
-32,928
-34,012
-35,185
-36,443
-37,783
-39,2
-40,692
-42,253
-43,879
-45,565
-47,304
-49,091
-50,921
-52,786
-54,681
-56,598
-58,531
-60,474
-62,421
-64,365
-66,3
-68,219
-70,117
-71,988
-73,825
-75,624
-77,378
-79,082
-80,733
-82,324
-83,853
-85,315
-86,707
-88,027
-89,272
-90,44
-91,531
-92,543
-93,475
-94,329
-95,104
-95,802
-96,423
-96,97
-97,444
-97,848
-98,183
-98,453
-98,661
-98,809
-98,901
-98,938
-98,925
-98,864
-98,758
-98,609
-98,421
-98,196
-97,936
-97,643
-97,321
-96,971
-96,595
-96,194
-95,772
-95,327
-94,863
-94,38
-93,879
-93,359
-92,823
-92,27
-91,7
-91,113
-90,509
-89,889
-89,252
-88,597
-87,924
-87,234
-86,525
-85,799
-85,054
-84,291
-83,511
-82,714
-81,901
-81,074
-80,234
-79,381
-78,519
-77,648
-76,771
-75,889
-75,005
-74,121
-73,24
-72,363
-71,493
-70,633
-69,785
-68,952
-68,136
-67,339
-66,565
-65,814
-65,09
-64,395
-63,732
-63,101
-62,505
-61,947
-61,427
-60,948
-60,51
-60,115
-59,764
-59,457
-59,193
-58,975
-58,8
-58,669
-58,582
-58,536
-58,532
-58,568
-58,643
-58,755
-58,903
-59,085
-59,301
-59,548
-59,826
-60,131
-60,464
-60,823
-61,207
-61,614
-62,043
-62,493
-62,963
-63,452
-63,96
-64,485
-65,028
-65,586
-66,161
-66,751
-67,356
-67,976
-68,611
-69,261
-69,925
-70,605
-71,3
-72,012
-72,74
-73,485
-74,248
-75,029
-75,829
-76,649
-77,488
-78,349
-79,23
-80,134
-81,06
-82,008
-82,98
-83,974
-84,99
-86,029
-87,088
-88,167
-89,264
-90,377
-91,505
-92,645
-93,796
-94,955
-96,119
-97,285
-98,451
-99,612
-100,766
-101,907
-103,031
-104,135
-105,212
-106,259
-107,27
-108,24
-109,163
-110,033
-110,845
-111,592
-112,267
-112,863
-113,373
-113,79
-114,107
-114,319
-114,418
-114,399
-114,257
-113,987
-113,585
-113,046
-112,369
-111,548
-110,584
-109,474
-108,221
-106,824
-105,287
-103,612
-101,805
-99,872
-97,823
-95,669
-93,421
-91,093
-88,699
-86,258
-83,786
-81,301
-78,821
-76,361
-73,937
-71,568
-69,272
-67,068
-64,975
-63,01
-61,186
-59,517
-58,012
-56,674
-55,505
-54,503
-53,665
-53,001
-52,517
-52,225
-52,136
-52,257
-52,591
-53,136
-53,872
-54,774
-55,815
-56,975
-58,246
-59,622
-61,085
-62,61
-64,166
-65,705
-67,191
-68,553
-69,671
-70,484
-71,006
-71,34
-71,714
-72,332
-73,286
-74,704
-76,783
-79,598
-83,048
-86,76
-90,04
-92,362
-93,527
-93,425
-91,884
-88,762
-84,152
-78,638
-73,323
-69,155
-66,572
-65,756
-66,998
-70,896
-77,921
-88,013
-100,467
-114,382
-129,187
-144,46
-159,312
-171,939
-180,021
-181,216
-173,388
-154,582
-122,615
-75,263
-11,121
69,957
166,821
277,168
398,035
524,742
650,373
767,784
869,779
951,751
1013,949
1055,757
1075,072
1067,988
1024,693
937,91
806,172
631,764
427,285
210,474
0,443
-181,408
-320,489
-409,729
-450,409
-451,603
-421,617
-368,59
-299,335
-220,603
-145,588
-87,93
-56,021
-51,614
-65,577
-84,058
-98,508
-105,749
-108,473
-112,412
-118,886
-125,917
-130,498
-129,446
-122,312
-110,498
-95,537
-79,149
-62,728
-47,436
-34,43
-24,331
-17,209
-12,831
-10,773
-10,607
-11,918
-14,218
-16,995
-19,893
-22,742
-25,498
-28,171
-30,723
-33,052
-35,022
-36,519
-37,47
-37,826
-37,562
-36,666
-35,145
-33,044
-30,442
-27,428
-24,083
-20,467
-16,609
-12,537
-8,3
-3,963
0,382
4,637
8,744
12,664
16,373
19,869
23,153
26,238
29,167
31,993
34,757
37,496
40,235
42,991
45,799
48,695
51,728
54,951
58,408
62,139
66,177
70,541
75,24
80,278
85,639
91,297
97,224
103,383
109,74
116,267
122,935
129,723
136,607
143,564
150,568
157,588
164,609
171,626
178,642
185,665
192,706
199,781
206,916
214,156
221,529
229,05
236,718
244,512
252,404
260,35
268,299
276,187
283,92
291,386
298,472
305,048
310,999
316,215
320,569
323,927
326,187
327,258
327,072
325,576
322,719
318,482
312,882
305,961
297,816
288,554
278,286
267,152
255,275
242,764
229,75
216,35
202,64
188,717
174,682
160,641
146,742
133,091
119,759
106,795
94,204
81,992
70,171
58,724
47,641
36,937
26,619
16,728
7,35
-1,475
-9,735
-17,442
-24,672
-31,473
-37,854
-43,832
-49,4
-54,553
-59,299
-63,621
-67,494
-70,922
-73,917
-76,528
-78,841
-80,906
-82,744
-84,355
-85,697
-86,745
-87,5
-87,956
-88,108
-87,963
-87,525
-86,818
-85,885
-84,756
-83,445
-81,955
-80,268
-78,385
-76,325
-74,113
-71,794
-69,402
-66,965
-64,514
-62,085
-59,704
-57,393
-55,163
-53,011
-50,94
-48,957
-47,072
-45,297
-43,639
-42,099
-40,679
-39,377
-38,191
-37,116
-36,149
-35,28
-34,502
-33,81
-33,202
-32,675
-32,228
-31,856
-31,554
-31,319
-31,146
-31,029
-30,962
-30,938
-30,95
-30,993
-31,061
-31,15
-31,256
-31,374
-31,5
-31,632
-31,768
-31,904
-32,041
-32,177
-32,311
-32,443
-32,573
-32,702
-32,831
-32,961
-33,094
-33,231
-33,373
-33,523
-33,682
-33,851
-34,032
-34,226
-34,433
-34,656
-34,894
-35,148
-35,42
-35,709
-36,016
-36,342
-36,684
-37,044
-37,419
-37,809
-38,211
-38,623
-39,044
-39,47
-39,899
-40,327
-40,752
-41,17
-41,578
-41,972
-42,347
-42,7
-43,028
-43,327
-43,593
-43,822
-44,012
-44,16
-44,262
-44,317
-44,321
-44,273
-44,171
-44,013
-43,799
-43,527
-43,198
-42,811
-42,366
-41,865
-41,309
-40,699
-40,037
-39,326
-38,567
-37,763
-36,917
-36,031
-35,11
-34,156
-33,173
-32,165
-31,135
-30,086
-29,024
-27,951
-26,87
-25,786
-24,702
-23,622
-22,548
-21,484
-20,434
-19,4
-18,386
-17,394
-16,427
-15,488
-14,578
-13,699
-12,852
-12,041
-11,264
-10,524
-9,822
-9,157
-8,532
-7,946
-7,401
-6,896
-6,432
-6,009
-5,628
-5,288
-4,991
-4,736
-4,523
-4,353
-4,227
-4,145
-4,106
-4,112
-4,161
-4,256
-4,394
-4,576
-4,801
-5,069
-5,379
-5,731
-6,124
-6,557
-7,03
-7,543
-8,093
-8,682
-9,306
-9,966
-10,659
-11,384
-12,139
-12,922
-13,73
-14,561
-15,412
-16,281
-17,163
-18,056
-18,956
-19,859
-20,76
-21,655
-22,54
-23,41
-24,261
-25,089
-25,89
-26,659
-27,394
-28,092
-28,749
-29,363
-29,931
-30,451
-30,919
-31,335
-31,694
-31,996
-32,239
-32,422
-32,547
-32,612
-32,619
-32,569
-32,464
-32,307
-32,099
-31,843
-31,544
-31,204
-30,828
-30,421
-29,989
-29,537
-29,072
-28,6
-28,127
-27,658
-27,2
-26,756
-26,33
-25,926
-25,546
-25,192
-24,866
-24,571
-24,31
-24,085
-23,899
-23,756
-23,658
-23,605
-23,596
-23,628
-23,694
-23,789
-23,903
-24,029
-24,159
-24,286
-24,402
-24,501
-24,579
-24,628
-24,638
-24,597
-24,486
-24,29
-23,999
-23,61
-23,12
-22,54
-21,882
-21,167
-20,415
-19,642
-18,857
-18,055
-17,224
-16,35
-15,418
-14,424
-13,378
-12,289
-11,162
-9,995
-8,784
-7,508
-6,134
-4,622
-2,92
-0,998
1,152
3,508
6,025
8,643
11,29
13,907
16,455
18,886
21,165
23,247
25,091
26,637
27,816
28,544
28,732
28,332
27,334
25,769
23,698
21,198
18,364
15,288
12,063
8,789
5,557
2,452
-0,46
-3,083
-5,299
-7,051
-8,337
-9,267
-10,077
-10,978
-12,135
-13,785
-16,162
-19,282
-23,051
-27,189
-31,178
-34,7
-37,533
-39,253
-39,609
-38,686
-36,717
-34,238
-32,027
-30,509
-30,141
-31,843
-36,337
-44,022
-55,067
-69,064
-85,267
-103,01
-121,097
-137,349
-149,144
-153,664
-148,029
-129,713
-96,469
-46,345
21,617
106,977
207,93
321,522
443,915
569,216
689,687
797,973
887,108
954,329
1001,876
1029,059
1033,532
1009,314
944,685
836,103
686,973
505,646
309,585
113,033
-71,763
-231,653
-357,707
-441,029
-477,359
-468,722
-422,469
-353,054
-274,975
-202,797
-147,611
-110,817
-90,026
-78,327
-67,188
-54,642
-41,397
-30,348
-26,065
-28,935
-36,876
-46,963
-55,311
-59,806
-60,241
-57,036
-51,154
-43,545
-34,944
-26,288
-18,651
-13,011
-9,859
-9,142
-10,516
-13,443
-17,353
-21,751
-26,131
-29,99
-33,038
-35,143
-36,23
-36,344
-35,543
-33,859
-31,372
-28,174
-24,327
-19,925
-15,089
-9,944
-4,654
0,637
5,844
10,894
15,729
20,308
24,577
28,513
32,127
35,43
38,435
41,152
43,588
45,774
47,766
49,626
51,422
53,208
55,02
56,893
58,859
60,946
63,18
65,576
68,14
70,884
73,825
76,982
80,375
84,011
87,892
92,02
96,397
101,029
105,919
111,056
116,429
122,024
127,821
133,799
139,932
146,176
152,486
158,818
165,13
171,394
177,586
183,677
189,633
195,422
201,02
206,425
211,648
216,692
221,568
226,285
230,86
235,342
239,77
244,174
248,575
252,955
257,285
261,543
265,705
269,746
273,615
277,223
280,451
283,189
285,334
286,788
287,444
287,158
285,791
283,218
279,351
274,153
267,605
259,695
250,404
239,725
227,697
214,417
200,037
184,715
168,595
151,824
134,571
117,051
99,495
82,136
65,158
48,694
32,873
17,817
3,667
-9,434
-21,398
-32,192
-41,837
-50,367
-57,804
-64,175
-69,542
-74,014
-77,725
-80,831
-83,435
-85,607
-87,423
-88,956
-90,306
-91,584
-92,863
-94,174
-95,533
-96,945
-98,424
-99,992
-101,634
-103,308
-104,956
-106,504
-107,916
-109,185
-110,294
-111,234
-111,986
-112,521
-112,836
-112,95
-112,878
-112,639
-112,244
-111,703
-111,041
-110,301
-109,528
-108,77
-108,061
-107,419
-106,863
-106,409
-106,071
-105,86
-105,778
-105,817
-105,974
-106,247
-106,633
-107,131
-107,734
-108,428
-109,198
-110,032
-110,916
-111,84
-112,793
-113,765
-114,746
-115,73
-116,711
-117,686
-118,649
-119,593
-120,513
-121,401
-122,252
-123,062
-123,825
-124,538
-125,197
-125,8
-126,346
-126,836
-127,269
-127,647
-127,971
-128,242
-128,464
-128,64
-128,774
-128,87
-128,934
-128,971
-128,987
-128,988
-128,981
-128,972
-128,967
-128,972
-128,993
-129,036
-129,105
-129,207
-129,346
-129,527
-129,754
-130,03
-130,36
-130,747
-131,192
-131,697
-132,265
-132,895
-133,588
-134,344
-135,161
-136,039
-136,976
-137,97
-139,018
-140,118
-141,265
-142,456
-143,687
-144,952
-146,248
-147,569
-148,909
-150,264
-151,627
-152,992
-154,355
-155,709
-157,048
-158,367
-159,66
-160,921
-162,145
-163,327
-164,463
-165,548
-166,579
-167,55
-168,46
-169,305
-170,082
-170,789
-171,423
-171,982
-172,465
-172,87
-173,196
-173,443
-173,611
-173,699
-173,709
-173,64
-173,495
-173,273
-172,978
-172,61
-172,173
-171,669
-171,101
-170,473
-169,788
-169,05
-168,263
-167,431
-166,558
-165,648
-164,705
-163,733
-162,736
-161,719
-160,685
-159,638
-158,583
-157,523
-156,462
-155,404
-154,352
-153,309
-152,279
-151,264
-150,266
-149,289
-148,334
-147,403
-146,498
-145,621
-144,77
-143,949
-143,155
-142,388
-141,647
-140,93
-140,234
-139,556
-138,895
-138,246
-137,605
-136,969
-136,332
-135,691
-135,039
-134,372
-133,682
-132,964
-132,211
-131,418
-130,577
-129,683
-128,728
-127,709
-126,618
-125,451
-124,202
-122,866
-121,436
-119,91
-118,283
-116,553
-114,716
-112,773
-110,724
-108,573
-106,324
-103,983
-101,556
-99,049
-96,472
-93,834
-91,147
-88,42
-85,664
-82,889
-80,109
-77,338
-74,591
-71,88
-69,22
-66,618
-64,086
-61,637
-59,281
-57,028
-54,884
-52,854
-50,944
-49,168
-47,537
-46,066
-44,762
-43,629
-42,665
-41,87
-41,234
-40,739
-40,36
-40,064
-39,812
-39,567
-39,296
-38,967
-38,553
-38,025
-37,343
-36,456
-35,312
-33,867
-32,105
-30,054
-27,74
-25,186
-22,48
-19,763
-17,287
-15,425
-14,421
-14,332
-15,203
-17,091
-19,99
-23,877
-28,381
-32,637
-36,026
-38,308
-39,371
-39,252
-37,946
-35,335
-31,901
-29,069
-28,052
-29,531
-33,927
-41,254
-51,52
-64,837
-79,634
-92,261
-99,341
-98,564
-90,323
-76,824
-57,484
-27,965
19,735
93,172
193,806
316,203
448,674
577,945
693,814
790,752
868,127
927,989
972,311
999,209
1002,811
975,205
909,182
804,145
665,767
503,082
327,611
150,617
-16,141
-158,657
-265,108
-331,005
-359,953
-363
-352,155
-331,74
-300,739
-256,936
-201,098
-142,731
-93,908
-62,242
-49,192
-48,014
-49,997
-50,401
-48,351
-46,646
-47,654
-50,873
-54,199
-54,835
-51,542
-44,839
-35,79
-25,66
-15,365
-5,621
2,69
8,729
12,094
12,839
11,304
7,976
3,326
-2,188
-8,077
-13,806
-18,974
-23,359
-26,813
-29,296
-30,806
-31,321
-30,857
-29,47
-27,209
-24,132
-20,336
-15,905
-10,938
-5,566
0,103
5,946
11,827
17,639
23,297
28,731
33,913
38,827
43,456
47,8
51,878
55,712
59,343
62,812
66,151
69,402
72,61
75,827
79,112
82,512
86,061
89,787
93,709
97,84
102,197
106,787
111,607
116,656
121,932
127,435
133,164
139,119
145,289
151,663
158,227
164,965
171,864
178,907
186,075
193,347
200,701
208,114
215,563
223,022
230,46
237,846
245,145
252,323
259,344
266,171
272,768
279,096
285,119
290,802
296,111
301,012
305,473
309,461
312,949
315,908
318,313
320,143
321,375
321,992
321,98
321,327
320,023
318,064
315,447
312,172
308,244
303,669
298,459
292,627
286,191
279,171
271,59
263,475
254,854
245,758
236,223
226,283
215,976
205,342
194,422
183,258
171,892
160,367
148,729
137,02
125,285
113,566
101,906
90,348
78,93
67,694
56,676
45,912
35,437
25,281
15,476
6,048
-2,978
-11,58
-19,738
-27,436
-34,66
-41,399
-47,645
-53,392
-58,638
-63,382
-67,628
-71,38
-74,648
-77,441
-79,772
-81,655
-83,109
-84,151
-84,802
-85,083
-85,019
-84,632
-83,947
-82,991
-81,788
-80,366
-78,749
-76,966
-75,041
-73
-70,868
-68,669
-66,427
-64,164
-61,901
-59,659
-57,456
-55,31
-53,238
-51,255
-49,374
-47,608
-45,966
-44,459
-43,093
-41,875
-40,808
-39,896
-39,139
-38,538
-38,091
-37,795
-37,646
-37,64
-37,771
-38,031
-38,413
-38,91
-39,513
-40,212
-40,998
-41,862
-42,794
-43,785
-44,824
-45,902
-47,01
-48,139
-49,28
-50,424
-51,562
-52,687
-53,791
-54,867
-55,909
-56,91
-57,865
-58,77
-59,62
-60,413
-61,145
-61,816
-62,424
-62,968
-63,45
-63,869
-64,228
-64,529
-64,774
-64,965
-65,107
-65,202
-65,254
-65,267
-65,245
-65,192
-65,111
-65,007
-64,883
-64,743
-64,591
-64,43
-64,265
-64,099
-63,935
-63,777
-63,628
-63,492
-63,37
-63,267
-63,183
-63,12
-63,081
-63,066
-63,077
-63,112
-63,173
-63,258
-63,368
-63,5
-63,655
-63,829
-64,021
-64,231
-64,455
-64,692
-64,941
-65,199
-65,467
-65,741
-66,022
-66,307
-66,597
-66,891
-67,187
-67,485
-67,783
-68,083
-68,381
-68,679
-68,975
-69,269
-69,561
-69,85
-70,137
-70,422
-70,705
-70,988
-71,27
-71,555
-71,842
-72,133
-72,431
-72,736
-73,052
-73,38
-73,721
-74,077
-74,45
-74,841
-75,249
-75,676
-76,121
-76,584
-77,064
-77,56
-78,071
-78,595
-79,132
-79,679
-80,236
-80,799
-81,366
-81,937
-82,507
-83,073
-83,633
-84,182
-84,718
-85,235
-85,729
-86,196
-86,629
-87,025
-87,377
-87,678
-87,923
-88,106
-88,219
-88,258
-88,216
-88,089
-87,871
-87,558
-87,147
-86,634
-86,016
-85,291
-84,458
-83,514
-82,461
-81,299
-80,03
-78,656
-77,179
-75,604
-73,936
-72,182
-70,352
-68,456
-66,508
-64,521
-62,512
-60,498
-58,497
-56,522
-54,588
-52,71
-50,903
-49,181
-47,562
-46,063
-44,702
-43,497
-42,463
-41,612
-40,953
-40,483
-40,202
-40,108
-40,205
-40,506
-41,027
-41,781
-42,784
-44,045
-45,568
-47,35
-49,366
-51,577
-53,944
-56,436
-59,037
-61,739
-64,519
-67,344
-70,159
-72,884
-75,451
-77,781
-79,763
-81,37
-82,633
-83,658
-84,658
-85,836
-87,318
-89,224
-91,661
-94,532
-97,618
-100,591
-103,007
-104,69
-105,675
-106,082
-106,101
-106,042
-106,348
-107,582
-110,302
-114,568
-120,149
-126,644
-133,618
-140,953
-148,587
-156,244
-163,635
-170,922
-178,411
-186,281
-194,549
-201,427
-203,439
-198,723
-186,065
-165,035
-137,589
-100,989
-49,021
22,867
119,756
239,672
372,862
509,066
636,085
745,51
834,594
902,745
952,99
984,889
994,68
976,437
919,854
821,796
684,464
513,677
323,931
127,978
-59,938
-222,96
-350,274
-432,918
-470,196
-469,391
-437,58
-386,148
-323,93
-258,453
-201,515
-158,365
-131,067
-118,027
-109,769
-101,273
-91,25
-80,277
-73,375
-72,295
-75,646
-81,338
-85,847
-87,184
-84,991
-79,443
-71,483
-62,027
-51,722
-41,434
-31,916
-23,827
-17,883
-14,318
-12,993
-13,643
-15,816
-19,049
-22,976
-27,202
-31,29
-34,952
-37,97
-40,181
-41,561
-42,1
-41,788
-40,664
-38,769
-36,145
-32,86
-28,998
-24,638
-19,871
-14,773
-9,414
-3,875
1,749
7,341
12,801
18,068
23,102
27,887
32,409
36,656
40,633
44,372
47,916
51,306
54,575
57,747
60,851
63,927
67,022
70,191
73,476
76,905
80,508
84,311
88,343
92,624
97,158
101,934
106,939
112,16
117,583
123,186
128,932
134,788
140,725
146,721
152,762
158,829
164,888
170,909
176,862
182,731
188,516
194,223
199,855
205,438
211,014
216,641
222,396
228,329
234,452
240,767
247,257
253,914
260,738
267,702
274,762
281,863
288,937
295,916
302,726
309,236
315,266
320,623
325,099
328,529
330,802
331,814
331,474
329,7
326,429
321,646
315,372
307,628
298,427
287,783
275,74
262,423
248,037
232,802
216,939
200,65
184,106
167,497
151,031
134,886
119,2
104,072
89,567
75,775
62,817
50,818
39,866
29,974
21,09
13,152
6,112
-0,091
-5,525
-10,295
-14,543
-18,368
-21,827
-24,951
-27,761
-30,304
-32,662
-34,923
-37,138
-39,328
-41,486
-43,607
-45,7
-47,758
-49,748
-51,609
-53,257
-54,644
-55,757
-56,597
-57,17
-57,47
-57,479
-57,184
-56,594
-55,726
-54,596
-53,22
-51,605
-49,774
-47,764
-45,63
-43,43
-41,208
-38,992
-36,803
-34,664
-32,593
-30,61
-28,728
-26,948
-25,273
-23,712
-22,273
-20,965
-19,791
-18,749
-17,832
-17,034
-16,348
-15,772
-15,3
-14,929
-14,653
-14,469
-14,379
-14,381
-14,473
-14,654
-14,917
-15,258
-15,673
-16,156
-16,704
-17,309
-17,968
-18,677
-19,432
-20,23
-21,069
-21,945
-22,857
-23,803
-24,779
-25,785
-26,82
-27,88
-28,967
-30,08
-31,217
-32,38
-33,567
-34,779
-36,015
-37,275
-38,558
-39,864
-41,19
-42,537
-43,903
-45,287
-46,688
-48,104
-49,534
-50,977
-52,429
-53,891
-55,359
-56,831
-58,304
-59,776
-61,243
-62,704
-64,153
-65,588
-67,006
-68,403
-69,775
-71,119
-72,432
-73,709
-74,948
-76,146
-77,299
-78,404
-79,459
-80,462
-81,41
-82,301
-83,134
-83,908
-84,621
-85,272
-85,862
-86,389
-86,855
-87,258
-87,6
-87,881
-88,102
-88,265
-88,369
-88,417
-88,41
-88,351
-88,239
-88,079
-87,87
-87,617
-87,321
-86,984
-86,609
-86,197
-85,753
-85,277
-84,772
-84,242
-83,688
-83,112
-82,516
-81,904
-81,277
-80,636
-79,985
-79,323
-78,654
-77,978
-77,297
-76,613
-75,927
-75,24
-74,554
-73,87
-73,19
-72,515
-71,847
-71,186
-70,535
-69,895
-69,266
-68,652
-68,052
-67,469
-66,903
-66,357
-65,83
-65,323
-64,839
-64,376
-63,937
-63,521
-63,13
-62,763
-62,422
-62,107
-61,818
-61,556
-61,321
-61,113
-60,931
-60,776
-60,648
-60,545
-60,468
-60,416
-60,388
-60,383
-60,4
-60,438
-60,494
-60,568
-60,658
-60,761
-60,875
-60,999
-61,131
-61,27
-61,415
-61,564
-61,718
-61,874
-62,033
-62,193
-62,354
-62,515
-62,675
-62,834
-62,993
-63,152
-63,31
-63,47
-63,632
-63,797
-63,967
-64,141
-64,322
-64,51
-64,707
-64,914
-65,132
-65,364
-65,612
-65,878
-66,164
-66,473
-66,806
-67,164
-67,547
-67,954
-68,385
-68,835
-69,304
-69,788
-70,284
-70,79
-71,303
-71,82
-72,34
-72,859
-73,376
-73,884
-74,378
-74,85
-75,292
-75,694
-76,045
-76,337
-76,559
-76,704
-76,764
-76,732
-76,605
-76,376
-76,037
-75,577
-74,983
-74,246
-73,362
-72,333
-71,167
-69,88
-68,496
-67,042
-65,549
-64,041
-62,536
-61,04
-59,547
-58,053
-56,547
-55,034
-53,527
-52,038
-50,575
-49,139
-47,728
-46,325
-44,9
-43,409
-41,796
-40,023
-38,07
-35,949
-33,707
-31,4
-29,103
-26,877
-24,762
-22,798
-21,018
-19,448
-18,098
-16,983
-16,13
-15,59
-15,449
-15,772
-16,592
-17,884
-19,571
-21,545
-23,675
-25,857
-27,971
-29,867
-31,492
-32,881
-34,18
-35,661
-37,537
-39,873
-42,768
-46,371
-50,609
-55,301
-60,07
-64,178
-67,124
-68,707
-68,581
-66,462
-62,49
-56,949
-50,506
-44,464
-39,73
-36,896
-36,874
-40,378
-47,672
-58,836
-73,31
-89,747
-106,996
-123,81
-138,29
-148,391
-151,884
-146,426
-130,025
-101,009
-57,836
0,507
74,314
163,076
265,12
378,173
498,408
619,669
735,669
840,133
928,596
1001,326
1058,605
1097,357
1111,859
1091,216
1024,718
910,795
753,84
564,548
359,336
151,041
-46,607
-218,472
-353,08
-439,256
-473,115
-458,208
-402,641
-321,983
-231,567
-148,057
-86,837
-52,387
-43,507
-50,938
-60,416
-65,504
-64,68
-61,01
-61,44
-67,483
-76,773
-86,102
-91,156
-90,475
-85,083
-76,062
-64,804
-52,619
-40,494
-29,563
-20,946
-15,102
-11,945
-11,221
-12,492
-15,255
-19,039
-23,248
-27,223
-30,599
-33,241
-35,094
-36,208
-36,576
-36,117
-34,835
-32,788
-30,021
-26,598
-22,568
-17,957
-12,861
-7,423
-1,798
3,835
9,356
14,703
19,818
24,663
29,201
33,382
37,192
40,645
43,752
46,528
48,987
51,137
53,011
54,668
56,171
57,592
58,987
60,393
61,847
63,383
65,031
66,826
68,787
70,918
73,233
75,751
78,494
81,493
84,766
88,312
92,132
96,219
100,563
105,156
109,972
114,967
120,107
125,355
130,693
136,119
141,625
147,194
152,814
158,461
164,131
169,839
175,584
181,361
187,17
193,007
198,902
204,914
211,083
217,435
223,967
230,638
237,406
244,227
251,028
257,725
264,212
270,351
276,045
281,216
285,779
289,66
292,756
294,928
296,065
296,076
294,886
292,465
288,802
283,901
277,827
270,676
262,567
253,646
244,018
233,764
222,977
211,731
200,112
188,228
176,183
164,088
152,079
140,267
128,735
117,551
106,726
96,243
86,084
76,213
66,616
57,298
48,264
39,543
31,185
23,235
15,717
8,622
1,887
-4,542
-10,694
-16,586
-22,208
-27,546
-32,589
-37,318
-41,708
-45,746
-49,428
-52,778
-55,852
-58,712
-61,395
-63,905
-66,208
-68,273
-70,089
-71,655
-72,972
-74,038
-74,85
-75,422
-75,785
-75,971
-75,997
-75,87
-75,576
-75,1
-74,444
-73,626
-72,678
-71,628
-70,498
-69,307
-68,079
-66,84
-65,613
-64,41
-63,231
-62,075
-60,946
-59,854
-58,81
-57,825
-56,905
-56,05
-55,263
-54,547
-53,903
-53,332
-52,833
-52,402
-52,039
-51,746
-51,527
-51,385
-51,324
-51,344
-51,445
-51,631
-51,901
-52,258
-52,698
-53,222
-53,828
-54,516
-55,285
-56,134
-57,061
-58,066
-59,146
-60,301
-61,528
-62,825
-64,192
-65,625
-67,122
-68,681
-70,3
-71,977
-73,707
-75,487
-77,315
-79,186
-81,096
-83,041
-85,015
-87,013
-89,029
-91,058
-93,093
-95,129
-97,158
-99,176
-101,175
-103,149
-105,093
-106,999
-108,862
-110,676
-112,435
-114,132
-115,764
-117,324
-118,808
-120,211
-121,53
-122,759
-123,896
-124,937
-125,878
-126,718
-127,454
-128,084
-128,608
-129,024
-129,332
-129,533
-129,628
-129,618
-129,505
-129,291
-128,979
-128,571
-128,071
-127,484
-126,811
-126,059
-125,232
-124,334
-123,371
-122,347
-121,268
-120,138
-118,962
-117,745
-116,493
-115,209
-113,899
-112,568
-111,221
-109,862
-108,496
-107,129
-105,764
-104,406
-103,059
-101,727
-100,414
-99,124
-97,858
-96,622
-95,418
-94,248
-93,117
-92,025
-90,976
-89,972
-89,014
-88,105
-87,246
-86,438
-85,682
-84,981
-84,334
-83,743
-83,209
-82,732
-82,314
-81,954
-81,652
-81,409
-81,223
-81,094
-81,019
-80,999
-81,029
-81,11
-81,237
-81,41
-81,624
-81,876
-82,165
-82,484
-82,832
-83,204
-83,595
-84,001
-84,418
-84,842
-85,266
-85,687
-86,101
-86,502
-86,886
-87,248
-87,584
-87,89
-88,162
-88,396
-88,589
-88,738
-88,84
-88,894
-88,9
-88,856
-88,763
-88,622
-88,435
-88,203
-87,93
-87,618
-87,272
-86,895
-86,493
-86,07
-85,631
-85,182
-84,73
-84,28
-83,839
-83,412
-83,008
-82,631
-82,289
-81,987
-81,73
-81,525
-81,377
-81,289
-81,264
-81,307
-81,418
-81,6
-81,853
-82,175
-82,565
-83,02
-83,535
-84,104
-84,722
-85,381
-86,073
-86,788
-87,516
-88,248
-88,973
-89,68
-90,359
-90,996
-91,581
-92,101
-92,546
-92,902
-93,159
-93,307
-93,337
-93,239
-93,006
-92,632
-92,114
-91,449
-90,638
-89,68
-88,579
-87,342
-85,976
-84,492
-82,903
-81,22
-79,458
-77,632
-75,758
-73,853
-71,934
-70,019
-68,123
-66,264
-64,462
-62,736
-61,101
-59,566
-58,142
-56,833
-55,652
-54,614
-53,735
-53,03
-52,512
-52,193
-52,083
-52,191
-52,516
-53,036
-53,719
-54,531
-55,444
-56,445
-57,531
-58,687
-59,877
-61,053
-62,154
-63,124
-63,922
-64,484
-64,731
-64,663
-64,351
-63,968
-63,8
-64,074
-64,948
-66,636
-69,306
-72,927
-77,34
-82,188
-86,903
-91,122
-94,57
-96,78
-97,455
-96,631
-94,547
-91,84
-89,397
-87,734
-87,353
-89,195
-94,033
-102,304
-114,1
-128,64
-144,783
-161,794
-178,631
-193,45
-203,143
-203,573
-191,376
-165,133
-126,906
-80,103
-25,211
40,438
123,655
230,695
359,829
502,264
643,359
769,612
875,178
958,834
1022,357
1062,491
1070,201
1038,292
960,586
839,673
684,668
502,091
302,948
99,761
-93,135
-254,804
-370,499
-435,8
-454,535
-439,409
-402,798
-352,322
-295,006
-238,076
-188,361
-151,707
-128,721
-113,774
-101,318
-88,454
-75,717
-67,543
-66,49
-71,755
-80,857
-89,662
-95,235
-96,489
-93,179
-85,922
-75,516
-62,737
-48,609
-34,3
-20,953
-9,618
-0,83
5,374
9,178
10,985
11,236
10,348
8,807
7,068
5,381
3,86
2,54
1,393
0,476
-0,126
-0,36
-0,156
0,527
1,706
3,399
5,588
8,218
11,227
14,546
18,117
21,914
25,907
30,072
34,389
38,807
43,27
47,72
52,071
56,264
60,269
64,062
67,65
71,053
74,288
77,383
80,375
83,288
86,145
88,964
91,758
94,549
97,373
100,268
103,284
106,463
109,831
113,416
117,24
121,318
125,662
130,265
135,112
140,185
145,464
150,929
156,553
162,298
168,123
173,99
179,862
185,712
191,512
197,236
202,855
208,336
213,661
218,831
223,852
228,74
233,512
238,184
242,791
247,381
251,99
256,637
261,321
266,027
270,734
275,414
280,03
284,547
288,903
293,017
296,802
300,151
302,957
305,117
306,509
306,994
306,454
304,795
301,955
297,891
292,561
285,941
278,015
268,785
258,286
246,573
233,71
219,799
204,951
189,275
172,914
156,029
138,775
121,303
103,743
86,223
68,891
51,901
35,409
19,559
4,46
-9,784
-23,074
-35,349
-46,557
-56,662
-65,658
-73,557
-80,378
-86,154
-90,915
-94,71
-97,618
-99,746
-101,221
-102,162
-102,663
-102,823
-102,743
-102,504
-102,178
-101,821
-101,465
-101,139
-100,869
-100,67
-100,557
-100,528
-100,562
-100,617
-100,635
-100,571
-100,394
-100,077
-99,594
-98,928
-98,07
-97,025
-95,818
-94,467
-92,99
-91,409
-89,743
-88,019
-86,272
-84,542
-82,873
-81,304
-79,86
-78,565
-77,438
-76,494
-75,74
-75,178
-74,797
-74,59
-74,551
-74,673
-74,95
-75,373
-75,928
-76,603
-77,384
-78,26
-79,217
-80,245
-81,333
-82,471
-83,649
-84,86
-86,096
-87,351
-88,616
-89,882
-91,139
-92,377
-93,59
-94,768
-95,903
-96,988
-98,015
-98,981
-99,879
-100,705
-101,456
-102,13
-102,723
-103,235
-103,665
-104,012
-104,278
-104,464
-104,57
-104,598
-104,551
-104,43
-104,238
-103,977
-103,65
-103,259
-102,807
-102,298
-101,736
-101,123
-100,463
-99,76
-99,018
-98,239
-97,427
-96,586
-95,719
-94,828
-93,916
-92,985
-92,037
-91,073
-90,096
-89,106
-88,104
-87,09
-86,063
-85,025
-83,973
-82,907
-81,828
-80,732
-79,62
-78,491
-77,343
-76,175
-74,987
-73,776
-72,543
-71,285
-70,002
-68,693
-67,355
-65,99
-64,596
-63,172
-61,72
-60,238
-58,729
-57,192
-55,63
-54,044
-52,436
-50,809
-49,166
-47,509
-45,843
-44,172
-42,5
-40,833
-39,176
-37,535
-35,915
-34,321
-32,761
-31,24
-29,762
-28,335
-26,962
-25,65
-24,404
-23,227
-22,125
-21,102
-20,162
-19,308
-18,541
-17,865
-17,28
-16,787
-16,384
-16,07
-15,843
-15,7
-15,636
-15,648
-15,729
-15,874
-16,075
-16,324
-16,612
-16,929
-17,265
-17,607
-17,944
-18,264
-18,555
-18,804
-18,999
-19,128
-19,179
-19,141
-19,002
-18,752
-18,38
-17,875
-17,229
-16,433
-15,482
-14,369
-13,091
-11,647
-10,036
-8,264
-6,334
-4,252
-2,027
0,334
2,821
5,42
8,117
10,899
13,747
16,646
19,575
22,512
25,435
28,322
31,153
33,91
36,576
39,131
41,559
43,845
45,973
47,933
49,711
51,289
52,657
53,804
54,722
55,412
55,879
56,129
56,177
56,047
55,761
55,348
54,837
54,257
53,638
53,008
52,39
51,808
51,281
50,842
50,53
50,385
50,434
50,657
51,019
51,493
52,007
52,436
52,598
52,185
50,888
48,608
45,31
40,97
35,752
29,846
23,559
17,68
13,076
10,215
9,388
10,658
13,719
18,39
24,348
30,419
35,087
37,23
36,131
31,601
23,894
13,086
-0,548
-14,835
-25,895
-30,25
-25,643
-12,874
5,362
29,224
62,765
113,651
189,18
290,888
412,983
543,224
668,071
776,76
863,465
927,942
972,781
1000,197
1009,562
996,621
953,604
874,28
757,064
605,14
429,263
242,66
60,09
-102,137
-232,048
-320,289
-364,443
-369,72
-344,251
-300,475
-249,354
-199,805
-158,495
-126,082
-100,477
-76,65
-50,434
-22,245
5,239
27,2
40,411
45,353
43,869
38,679
32,281
25,919
20,587
17,272
16,291
17,53
20,703
25,252
30,44
35,594
39,914
42,527
43,127
41,808
38,829
34,662
29,736
24,423
19,191
14,535
10,768
8,029
6,342
5,621
5,806
6,866
8,732
11,304
14,47
18,131
22,185
26,547
31,124
35,798
40,469
45,058
49,494
53,741
57,783
61,614
65,236
68,668
71,922
75,02
78
80,889
83,724
86,549
89,407
92,353
95,437
98,696
102,164
105,864
109,812
114,019
118,495
123,233
128,231
133,487
138,998
144,77
150,805
157,1
163,64
170,411
177,391
184,549
191,851
199,249
206,689
214,129
221,535
228,882
236,16
243,349
250,432
257,394
264,208
270,847
277,293
283,512
289,478
295,189
300,647
305,885
310,948
315,845
320,57
325,102
329,381
333,349
336,933
340,031
342,566
344,474
345,691
346,183
345,916
344,829
342,858
339,917
335,901
330,751
324,436
316,94
308,301
298,577
287,852
276,263
263,932
250,957
237,433
223,43
209,012
194,274
179,308
164,218
149,135
134,161
119,383
104,885
90,713
76,893
63,427
50,277
37,41
24,821
12,506
0,484
-11,223
-22,605
-33,65
-44,344
-54,69
-64,69
-74,341
-83,651
-92,612
-101,205
-109,409
-117,181
-124,487
-131,306
-137,626
-143,443
-148,765
-153,596
-157,95
-161,849
-165,31
-168,351
-170,987
-173,233
-175,105
-176,626
-177,818
-178,71
-179,327
-179,696
-179,838
-179,778
-179,535
-179,128
-178,573
-177,884
-177,071
-176,15
-175,133
-174,034
-172,866
-171,639
-170,365
-169,055
-167,717
-166,36
-164,99
-163,613
-162,232
-160,853
-159,478
-158,108
-156,747
-155,395
-154,053
-152,722
-151,404
-150,098
-148,805
-147,526
-146,262
-145,014
-143,783
-142,571
-141,38
-140,212
-139,069
-137,955
-136,874
-135,828
-134,822
-133,859
-132,944
-132,078
-131,267
-130,513
-129,819
-129,187
-128,622
-128,125
-127,698
-127,345
-127,065
-126,862
-126,735
-126,685
-126,712
-126,815
-126,993
-127,243
-127,564
-127,951
-128,401
-128,909
-129,471
-130,082
-130,734
-131,422
-132,139
-132,878
-133,631
-134,392
-135,153
-135,907
-136,645
-137,363
-138,052
-138,707
-139,322
-139,893
-140,414
-140,882
-141,293
-141,647
-141,94
-142,172
-142,343
-142,453
-142,505
-142,5
-142,442
-142,334
-142,18
-141,986
-141,757
-141,5
-141,222
-140,929
-140,629
-140,329
-140,036
-139,758
-139,503
-139,276
-139,086
-138,939
-138,841
-138,797
-138,812
-138,891
-139,036
-139,25
-139,535
-139,891
-140,317
-140,812
-141,371
-141,992
-142,67
-143,398
-144,171
-144,979
-145,814
-146,668
-147,529
-148,387
-149,229
-150,044
-150,819
-151,542
-152,199
-152,78
-153,272
-153,663
-153,943
-154,101
-154,128
-154,013
-153,749
-153,328
-152,743
-151,99
-151,065
-149,966
-148,694
-147,251
-145,642
-143,873
-141,953
-139,893
-137,703
-135,398
-132,995
-130,513
-127,972
-125,391
-122,79
-120,194
-117,623
-115,101
-112,651
-110,292
-108,043
-105,922
-103,95
-102,147
-100,529
-99,106
-97,887
-96,876
-96,079
-95,51
-95,176
-95,082
-95,233
-95,628
-96,266
-97,149
-98,263
-99,585
-101,081
-102,702
-104,409
-106,172
-107,968
-109,781
-111,585
-113,322
-114,932
-116,357
-117,532
-118,426
-118,994
-119,165
-118,961
-118,494
-117,946
-117,605
-117,724
-118,439
-119,871
-122,116
-125,079
-128,566
-132,248
-135,571
-138,061
-139,354
-139,183
-137,445
-134,349
-130,281
-125,731
-121,409
-118,016
-116,301
-116,958
-120,488
-126,89
-135,603
-146,141
-157,914
-169,824
-180,485
-187,32
-186,397
-175,743
-154,856
-124,105
-86,215
-39,734
20,376
98
197,933
317,94
448,082
577,883
694,56
789,957
862,381
912,364
943,853
957,502
950,422
916,081
844,067
729,909
573,896
384,129
178,693
-23,686
-203,006
-343,021
-437,542
-487,473
-501,091
-488,641
-456,56
-409,363
-350,227
-285,821
-228,072
-185,815
-163,33
-157,524
-157,567
-156,513
-151,955
-144,974
-141,033
-142,048
-146,224
-151,219
-153,603
-151,599
-145,681
-136,687
-125,661
-113,699
-101,692
-90,478
-80,945
-73,833
-69,373
-67,465
-67,849
-70,078
-73,7
-78,325
-83,53
-88,889
-94,148
-99,142
-103,716
-107,798
-111,294
-114,076
-116,087
-117,312
-117,739
-117,392
-116,323
-114,578
-112,23
-109,369
-106,051
-102,339
-98,288
-93,952
-89,411
-84,747
-80,04
-75,384
-70,85
-66,488
-62,33
-58,376
-54,599
-50,966
-47,434
-43,956
-40,499
-37,039
-33,555
-30,007
-26,322
-22,428
-18,264
-13,794
-9,018
-3,906
1,61
7,543
13,797
20,207
26,665
33,213
40,098
47,54
55,48
63,769
72,462
81,589
90,955
100,291
108,638
115,657
122,781
130,049
136,499
139,977
135,778
124,645
112,892
107,285
116,021
139,377
169,204
198,805
221,433
235,262
244,41
250,468
254,616
257,623
258,307
257,024
254,715
251,69
248,82
247,048
246,614
247,44
248,965
250,167
250,381
249,361
246,905
242,786
236,83
228,955
219,311
208,3
196,231
183,257
169,47
154,938
139,797
124,233
108,386
92,338
76,187
60,065
44,141
28,614
13,655
-0,616
-14,085
-26,649
-38,236
-48,777
-58,221
-66,547
-73,76
-79,878
-84,938
-88,975
-92,045
-94,233
-95,65
-96,433
-96,708
-96,575
-96,136
-95,497
-94,742
-93,952
-93,191
-92,498
-91,907
-91,446
-91,133
-90,98
-90,985
-91,126
-91,359
-91,626
-91,882
-92,096
-92,242
-92,295
-92,237
-92,059
-91,765
-91,375
-90,907
-90,378
-89,806
-89,209
-88,613
-88,052
-87,563
-87,189
-86,962
-86,907
-87,041
-87,379
-87,93
-88,696
-89,673
-90,845
-92,2
-93,724
-95,407
-97,234
-99,192
-101,26
-103,42
-105,652
-107,939
-110,262
-112,605
-114,952
-117,288
-119,601
-121,878
-124,111
-126,29
-128,405
-130,445
-132,4
-134,262
-136,023
-137,675
-139,21
-140,624
-141,911
-143,068
-144,093
-144,984
-145,742
-146,366
-146,858
-147,22
-147,454
-147,564
-147,553
-147,425
-147,185
-146,837
-146,386
-145,836
-145,194
-144,462
-143,647
-142,751
-141,779
-140,735
-139,622
-138,441
-137,196
-135,888
-134,518
-133,088
-131,597
-130,047
-128,435
-126,763
-125,029
-123,231
-121,368
-119,438
-117,44
-115,37
-113,228
-111,01
-108,715
-106,342
-103,888
-101,353
-98,735
-96,035
-93,251
-90,385
-87,437
-84,408
-81,3
-78,115
-74,857
-71,53
-68,137
-64,684
-61,176
-57,62
-54,023
-50,392
-46,735
-43,06
-39,377
-35,693
-32,019
-28,363
-24,735
-21,145
-17,6
-14,111
-10,686
-7,334
-4,064
-0,882
2,204
5,186
8,058
10,816
13,454
15,968
18,354
20,61
22,735
24,726
26,585
28,312
29,907
31,374
32,714
33,933
35,034
36,024
36,906
37,689
38,378
38,981
39,505
39,958
40,347
40,68
40,966
41,212
41,427
41,619
41,795
41,965
42,135
42,314
42,508
42,724
42,967
43,244
43,56
43,918
44,324
44,779
45,288
45,854
46,477
47,16
47,903
48,707
49,572
50,497
51,48
52,521
53,617
54,768
55,972
57,225
58,527
59,875
61,266
62,697
64,163
65,662
67,188
68,737
70,305
71,886
73,475
75,069
76,661
78,248
79,822
81,379
82,91
84,41
85,868
87,276
88,623
89,9
91,097
92,2
93,199
94,08
94,83
95,439
95,894
96,184
96,299
96,228
95,964
95,501
94,836
93,965
92,884
91,591
90,087
88,381
86,483
84,405
82,155
79,737
77,153
74,411
71,519
68,485
65,313
62,011
58,597
55,106
51,588
48,09
44,654
41,301
38,041
34,897
31,91
29,134
26,634
24,468
22,667
21,302
20,459
20,147
20,303
20,738
21,132
21,212
20,772
19,56
17,421
14,402
10,659
6,657
3,102
0,534
-0,478
0,699
4,304
10,233
18,118
26,975
35,623
43,148
48,264
49,467
45,933
37,313
23,74
6,309
-13,723
-35,217
-55,104
-68,682
-72,433
-63,975
-44,214
-16,916
17,679
63,604
128,517
220,068
339,159
478,582
623,68
758,814
873,731
963,254
1029,655
1078,505
1109,233
1118,943
1101,128
1044,335
945,824
807,619
633,869
438,816
236,951
44,127
-119,218
-240,622
-315,744
-347,833
-348,41
-327,047
-289,469
-239,813
-182,97
-129,038
-87,6
-64,014
-56,565
-55,355
-52,845
-45,91
-35,955
-29,031
-27,529
-30,66
-36,561
-41,692
-44,545
-45,1
-42,893
-38,606
-33,547
-28,282
-23,651
-19,647
-14,59
-8,738
-3,771
-1,664
-5,967
-15,806
-26,182
-32,515
-28,927
-15,439
1,583
17,045
25,266
24,652
19,471
12,54
6,165
1,819
-1,799
-5,257
-8,116
-10,227
-11,216
-10,857
-9,449
-7,489
-5,209
-2,721
-0,158
2,505
5,273
8,002
10,594
13,093
15,498
17,807
20,051
22,177
24,156
26,035
27,863
29,669
31,481
33,309
35,149
37,033
39
41,095
43,375
45,89
48,687
51,808
55,291
59,17
63,465
68,178
73,297
78,802
84,67
90,882
97,408
104,212
111,259
118,513
125,94
133,514
141,196
148,948
156,734
164,508
172,242
179,925
187,549
195,119
202,656
210,179
217,726
225,349
233,07
240,894
248,813
256,797
264,828
272,881
280,914
288,888
296,756
304,436
311,851
318,895
325,418
331,269
336,277
340,253
343,05
344,56
344,699
343,418
340,68
336,455
330,751
323,581
314,955
304,921
293,529
280,875
267,128
252,472
237,118
221,308
205,263
189,168
173,189
157,452
142,064
127,129
112,725
98,931
85,84
73,534
62,097
51,576
41,955
33,193
25,224
17,947
11,252
5,055
-0,714
-6,098
-11,113
-15,775
-20,095
-24,085
-27,773
-31,198
-34,412
-37,452
-40,33
-43,038
-45,55
-47,82
-49,785
-51,398
-52,624
-53,446
-53,875
-53,924
-53,612
-52,965
-52,007
-50,753
-49,207
-47,38
-45,282
-42,938
-40,386
-37,673
-34,854
-31,985
-29,115
-26,289
-23,536
-20,883
-18,354
-15,963
-13,722
-11,643
-9,745
-8,042
-6,553
-5,289
-4,259
-3,464
-2,905
-2,577
-2,476
-2,594
-2,925
-3,462
-4,197
-5,124
-6,237
-7,528
-8,987
-10,602
-12,36
-14,245
-16,243
-18,338
-20,511
-22,746
-25,027
-27,337
-29,66
-31,982
-34,287
-36,56
-38,788
-40,956
-43,053
-45,066
-46,985
-48,798
-50,497
-52,074
-53,523
-54,838
-56,015
-57,051
-57,945
-58,695
-59,303
-59,769
-60,097
-60,29
-60,352
-60,29
-60,111
-59,821
-59,432
-58,951
-58,389
-57,759
-57,071
-56,337
-55,569
-54,78
-53,982
-53,187
-52,408
-51,656
-50,945
-50,285
-49,689
-49,168
-48,731
-48,389
-48,15
-48,024
-48,018
-48,139
-48,392
-48,782
-49,314
-49,991
-50,815
-51,787
-52,907
-54,175
-55,587
-57,141
-58,833
-60,658
-62,609
-64,681
-66,864
-69,152
-71,534
-74,002
-76,544
-79,15
-81,808
-84,507
-87,236
-89,981
-92,732
-95,475
-98,2
-100,896
-103,55
-106,153
-108,694
-111,164
-113,554
-115,855
-118,061
-120,164
-122,158
-124,04
-125,804
-127,449
-128,972
-130,373
-131,65
-132,805
-133,839
-134,756
-135,558
-136,249
-136,835
-137,322
-137,715
-138,022
-138,251
-138,41
-138,507
-138,551
-138,55
-138,514
-138,452
-138,37
-138,279
-138,185
-138,096
-138,018
-137,959
-137,924
-137,918
-137,945
-138,008
-138,11
-138,252
-138,436
-138,661
-138,928
-139,233
-139,576
-139,954
-140,363
-140,799
-141,258
-141,734
-142,222
-142,715
-143,205
-143,687
-144,152
-144,593
-145,003
-145,373
-145,696
-145,966
-146,176
-146,318
-146,388
-146,38
-146,29
-146,114
-145,848
-145,491
-145,042
-144,501
-143,868
-143,145
-142,334
-141,438
-140,462
-139,41
-138,287
-137,098
-135,851
-134,552
-133,208
-131,827
-130,419
-128,991
-127,554
-126,117
-124,689
-123,28
-121,9
-120,56
-119,268
-118,035
-116,869
-115,78
-114,775
-113,863
-113,05
-112,343
-111,746
-111,265
-110,902
-110,659
-110,537
-110,537
-110,658
-110,897
-111,254
-111,725
-112,306
-112,993
-113,78
-114,661
-115,63
-116,679
-117,799
-118,982
-120,217
-121,494
-122,802
-124,131
-125,467
-126,799
-128,115
-129,4
-130,642
-131,827
-132,942
-133,972
-134,906
-135,73
-136,433
-137,003
-137,431
-137,708
-137,824
-137,774
-137,549
-137,145
-136,556
-135,778
-134,809
-133,646
-132,29
-130,741
-129,001
-127,076
-124,974
-122,702
-120,272
-117,694
-114,981
-112,146
-109,209
-106,187
-103,098
-99,959
-96,791
-93,612
-90,448
-87,32
-84,252
-81,262
-78,37
-75,594
-72,955
-70,473
-68,163
-66,036
-64,1
-62,366
-60,851
-59,575
-58,551
-57,792
-57,304
-57,087
-57,14
-57,456
-58,014
-58,786
-59,736
-60,82
-62
-63,242
-64,514
-65,792
-67,037
-68,194
-69,201
-69,989
-70,506
-70,744
-70,723
-70,469
-70,002
-69,392
-68,804
-68,521
-68,843
-69,961
-71,896
-74,596
-78,163
-82,73
-88,233
-94,328
-100,437
-106,022
-110,957
-115,393
-119,18
-121,986
-123,648
-124,318
-124,752
-126,018
-128,609
-132,401
-137,543
-144,356
-153,049
-163,761
-174,64
-181,8
-182,202
-173,377
-155,798
-133,385
-106,68
-73,395
-26,614
45,518
148,121
279,046
428,183
576,296
707,968
814,01
890,794
943,232
975,1
985,534
971,455
924,557
838,432
712,512
550,086
361,985
161,95
-33,982
-207,849
-346,341
-439,271
-485,274
-490,85
-462,679
-411,037
-344,683
-271,121
-202,97
-150,287
-117,885
-105,641
-104,67
-104,472
-100,043
-90,775
-80,854
-75,793
-76,974
-83,008
-91,453
-99,44
-106,07
-111,756
-116,507
-120,433
-123,461
-125,209
-125,588
-124,721
-122,415
-118,293
-112,447
-105,043
-96,377
-87,133
-77,744
-68,417
-59,617
-51,9
-45,506
-40,584
-37,043
-34,406
-32,437
-31,079
-30,155
-29,514
-29,085
-28,777
-28,649
-28,917
-29,618
-30,689
-32,063
-33,596
-35,156
-36,657
-37,964
-38,928
-39,463
-39,512
-39,051
-38,1
-36,665
-34,759
-32,415
-29,671
-26,592
-23,23
-19,622
-15,803
-11,808
-7,662
-3,385
1,015
5,555
10,248
15,114
20,174
25,452
30,972
36,766
42,866
49,297
56,07
63,176
70,596
78,304
86,274
94,474
102,861
111,388
120,017
128,714
137,456
146,221
154,994
163,744
172,438
181,064
189,638
198,2
206,815
215,525
224,319
233,211
242,254
251,432
260,692
269,875
278,671
286,89
294,499
301,476
307,834
313,657
318,974
324,001
329,261
334,987
341,126
347,449
353,354
358,146
361,306
362,159
359,731
353,441
342,978
328,368
310,452
290,321
268,984
247,494
226,963
208,245
192,134
179,204
169,209
161,482
155,201
149,624
144,218
138,569
132,183
124,538
115,529
105,441
94,82
84,118
73,523
63,122
53,026
43,451
34,557
26,303
18,488
10,942
3,626
-3,416
-10,094
-16,373
-22,255
-27,712
-32,695
-37,149
-41,044
-44,385
-47,211
-49,561
-51,466
-52,947
-54,018
-54,697
-55,012
-54,992
-54,666
-54,061
-53,2
-52,108
-50,807
-49,323
-47,679
-45,896
-43,991
-41,979
-39,876
-37,7
-35,475
-33,219
-30,953
-28,694
-26,456
-24,256
-22,108
-20,027
-18,021
-16,1
-14,27
-12,538
-10,907
-9,381
-7,964
-6,655
-5,454
-4,359
-3,368
-2,48
-1,69
-0,994
-0,388
0,134
0,577
0,947
1,248
1,489
1,674
1,81
1,904
1,961
1,989
1,993
1,981
1,957
1,928
1,898
1,874
1,858
1,854
1,866
1,894
1,941
2,007
2,094
2,2
2,325
2,47
2,631
2,809
3
3,204
3,417
3,637
3,862
4,09
4,317
4,541
4,76
4,972
5,174
5,364
5,54
5,701
5,844
5,968
6,072
6,153
6,211
6,246
6,257
6,243
6,205
6,143
6,059
5,953
5,826
5,68
5,516
5,337
5,144
4,939
4,725
4,505
4,28
4,054
3,829
3,607
3,39
3,181
2,982
2,794
2,619
2,458
2,313
2,185
2,076
1,985
1,915
1,866
1,838
1,831
1,846
1,882
1,939
2,017
2,115
2,232
2,368
2,52
2,688
2,871
3,066
3,273
3,488
3,71
3,938
4,168
4,4
4,631
4,859
5,083
5,301
5,513
5,716
5,91
6,093
6,266
6,426
6,573
6,707
6,827
6,934
7,026
7,104
7,169
7,22
7,258
7,284
7,299
7,304
7,3
7,288
7,27
7,247
7,222
7,196
7,172
7,151
7,136
7,128
7,13
7,144
7,171
7,213
7,271
7,347
7,442
7,557
7,693
7,852
8,033
8,238
8,467
8,72
8,998
9,299
9,625
9,974
10,345
10,739
11,153
11,586
12,036
12,502
12,982
13,472
13,97
14,473
14,978
15,482
15,981
16,471
16,95
17,413
17,857
18,279
18,675
19,041
19,375
19,674
19,933
20,149
20,321
20,445
20,517
20,537
20,5
20,405
20,249
20,031
19,748
19,4
18,985
18,501
17,949
17,329
16,639
15,881
15,055
14,163
13,206
12,186
11,106
9,968
8,775
7,531
6,24
4,905
3,531
2,121
0,682
-0,783
-2,269
-3,771
-5,284
-6,801
-8,317
-9,826
-11,322
-12,797
-14,246
-15,662
-17,037
-18,366
-19,641
-20,857
-22,005
-23,08
-24,075
-24,984
-25,801
-26,519
-27,134
-27,642
-28,038
-28,319
-28,484
-28,528
-28,452
-28,253
-27,933
-27,49
-26,926
-26,242
-25,441
-24,528
-23,506
-22,381
-21,162
-19,855
-18,472
-17,025
-15,529
-13,997
-12,447
-10,896
-9,364
-7,871
-6,431
-5,061
-3,776
-2,591
-1,522
-0,583
0,213
0,851
1,319
1,609
1,713
1,629
1,363
0,922
0,316
-0,451
-1,388
-2,503
-3,8
-5,284
-6,959
-8,823
-10,87
-13,073
-15,391
-17,784
-20,219
-22,683
-25,171
-27,662
-30,131
-32,532
-34,797
-36,874
-38,686
-40,121
-41,133
-41,753
-42,085
-42,371
-42,849
-43,649
-44,969
-47,045
-49,86
-53,223
-56,711
-59,624
-61,485
-62,123
-61,229
-58,406
-53,641
-47,23
-39,938
-33
-27,232
-23,025
-21,025
-22,17
-27,145
-36,274
-49,192
-64,765
-82,007
-100,035
-117,346
-131,651
-140,243
-140,355
-129,645
-106,398
-69,031
-16,288
52,058
135,049
230,502
335,285
446,006
558,069
665,085
760,783
839,511
898,504
940,125
966,279
976,031
965,476
924,562
844,921
725,085
568,303
386,371
195,303
11,069
-149,692
-274,466
-355,476
-392,275
-390,048
-355,477
-299,996
-233,101
-164,684
-108,331
-69,352
-48,861
-43,032
-40,098
-34,17
-24,217
-12,175
-4,571
-3,781
-8,516
-16,632
-24,49
-30,362
-34,207
-35,884
-35,907
-34,874
-33,041
-30,978
-29,221
-28,011
-27,68
-28,541
-30,571
-33,571
-37,26
-41,239
-45,21
-48,991
-52,339
-54,978
-56,731
-57,524
-57,378
-56,395
-54,673
-52,293
-49,374
-46,083
-42,575
-38,98
-35,403
-31,903
-28,519
-25,296
-22,265
-19,446
-16,868
-14,54
-12,458
-10,615
-8,994
-7,565
-6,291
-5,116
-3,978
-2,828
-1,625
-0,337
1,06
2,59
4,277
6,132
8,174
10,418
12,883
15,586
18,548
21,781
25,289
29,076
33,143
37,494
42,141
47,087
52,327
57,851
63,647
69,699
75,99
82,484
89,131
95,88
102,68
109,493
116,302
123,08
129,799
136,433
142,947
149,33
155,591
161,726
167,73
173,599
179,328
184,943
190,504
196,052
201,613
207,185
212,726
218,197
223,562
228,762
233,728
238,362
242,527
246,117
249,056
251,262
252,662
253,151
252,582
250,846
247,869
243,609
238,074
231,276
223,229
213,996
203,672
192,389
180,325
167,62
154,378
140,711
126,723
112,546
98,347
84,258
70,377
56,789
43,555
30,731
18,379
6,518
-4,871
-15,824
-26,408
-36,659
-46,582
-56,187
-65,481
-74,477
-83,208
-91,683
-99,891
-107,827
-115,484
-122,857
-129,953
-136,753
-143,226
-149,334
-155,037
-160,308
-165,139
-169,523
-173,456
-176,941
-179,981
-182,588
-184,788
-186,6
-188,04
-189,125
-189,869
-190,293
-190,424
-190,287
-189,909
-189,315
-188,525
-187,563
-186,451
-185,208
-183,85
-182,394
-180,851
-179,236
-177,564
-175,85
-174,11
-172,356
-170,601
-168,858
-167,139
-165,455
-163,814
-162,224
-160,691
-159,22
-157,817
-156,484
-155,226
-154,043
-152,938
-151,911
-150,963
-150,093
-149,3
-148,583
-147,939
-147,366
-146,861
-146,421
-146,043
-145,722
-145,456
-145,241
-145,072
-144,946
-144,858
-144,804
-144,779
-144,778
-144,797
-144,831
-144,875
-144,924
-144,974
-145,021
-145,061
-145,09
-145,106
-145,105
-145,084
-145,04
-144,972
-144,877
-144,754
-144,601
-144,417
-144,201
-143,953
-143,673
-143,361
-143,018
-142,644
-142,241
-141,809
-141,351
-140,869
-140,364
-139,838
-139,295
-138,737
-138,167
-137,588
-137,003
-136,415
-135,829
-135,248
-134,675
-134,114
-133,568
-133,042
-132,538
-132,059
-131,609
-131,19
-130,804
-130,455
-130,145
-129,874
-129,645
-129,458
-129,314
-129,215
-129,16
-129,149
-129,182
-129,259
-129,379
-129,541
-129,744
-129,987
-130,27
-130,59
-130,947
-131,338
-131,763
-132,219
-132,705
-133,219
-133,759
-134,323
-134,91
-135,516
-136,142
-136,785
-137,444
-138,119
-138,809
-139,514
-140,234
-140,968
-141,718
-142,484
-143,267
-144,067
-144,887
-145,727
-146,59
-147,475
-148,385
-149,32
-150,281
-151,268
-152,281
-153,32
-154,384
-155,472
-156,582
-157,713
-158,862
-160,029
-161,209
-162,401
-163,6
-164,803
-166,005
-167,2
-168,384
-169,549
-170,687
-171,792
-172,854
-173,865
-174,815
-175,695
-176,494
-177,201
-177,805
-178,296
-178,662
-178,891
-178,974
-178,901
-178,662
-178,248
-177,651
-176,866
-175,885
-174,704
-173,318
-171,724
-169,921
-167,908
-165,684
-163,252
-160,615
-157,776
-154,741
-151,517
-148,115
-144,548
-140,832
-136,984
-133,024
-128,974
-124,858
-120,701
-116,524
-112,349
-108,195
-104,084
-100,039
-96,084
-92,245
-88,543
-84,997
-81,624
-78,442
-75,463
-72,693
-70,131
-67,771
-65,616
-63,674
-61,968
-60,521
-59,346
-58,454
-57,848
-57,525
-57,482
-57,707
-58,176
-58,87
-59,766
-60,835
-62,064
-63,434
-64,902
-66,425
-67,904
-69,19
-70,23
-71,039
-71,683
-72,338
-73,113
-74,001
-75,119
-76,662
-78,611
-80,821
-82,906
-84,149
-84,183
-83,11
-80,962
-77,786
-73,84
-69,352
-64,995
-62,035
-61,106
-62,119
-64,957
-69,349
-75,047
-82,268
-90,803
-99,763
-108,854
-118,242
-127,92
-137,928
-147,734
-155,68
-159,956
-158,921
-150,335
-131,793
-101,173
-56,413
3,534
78,008
165,369
263,267
368,273
476,157
581,293
676,439
754,853
812,09
847,762
863,848
861,797
840,487
792,918
712,051
594,377
440,596
262,731
78,067
-95,228
-237,174
-337,482
-396,384
-418,625
-416,047
-398,949
-369,154
-330,01
-284,809
-235,928
-192,143
-157,418
-129,267
-106,848
-86,23
-65,944
-50
-39,698
-35,169
-35,985
-39,125
-42,474
-45,327
-46,844
-46,593
-44,739
-41,555
-37,369
-32,756
-28,235
-24,11
-20,901
-19,195
-19,089
-20,389
-22,763
-25,731
-28,94
-32,179
-35,12
-37,362
-38,669
-38,942
-38,191
-36,553
-34,124
-30,952
-27,122
-22,764
-18,022
-13,058
-8,03
-3,032
1,864
6,593
11,102
15,33
19,228
22,788
26,023
28,955
31,603
33,976
36,088
37,981
39,709
